# dimensionless total [l(l+1)/2pi] C_l's
# for l=2 to 3000, i.e. number of multipoles equal to 2999
#
# -> if you prefer output in CAMB/HealPix/LensPix units/order, set 'format' to 'camb' in input file
# -> if you don't want to see such a header, set 'headers' to 'no' in input file
# -> for CMB lensing (phi), these are C_l^phi-phi for the lensing potential.
#    Remember the conversion factors:
#    C_l^dd (deflection) = l(l+1) C_l^phi-phi
#    C_l^gg (shear/convergence) = 1/4 (l(l+1))^2 C_l^phi-phi
#
# 1:l     2:TT                     3:EE                     4:TE                     5:BB                     6:phiphi                 7:TPhi                   8:Ephi               
    2       1.371651126129e-10       4.144098384679e-15       3.534141989466e-13       0.000000000000e+00       8.210531385277e-09       4.444215502596e-10      -1.839400726237e-12 
    3       1.299348557035e-10       5.311834157629e-15       3.962773119306e-13       0.000000000000e+00       5.046303437814e-09       3.154418777221e-10      -1.394052894197e-12 
    4       1.230672507552e-10       4.597489881274e-15       3.703568154769e-13       0.000000000000e+00       3.511380202003e-09       2.387388449477e-10      -9.134212120736e-13 
    5       1.179245265385e-10       3.069417129953e-15       3.152824848450e-13       0.000000000000e+00       2.621008835009e-09       1.884380473232e-10      -5.087396197407e-13 
    6       1.144049562267e-10       1.716537109384e-15       2.537850734659e-13       0.000000000000e+00       2.046835179014e-09       1.532179885185e-10      -2.104836696412e-13 
    7       1.121154456479e-10       9.260931514592e-16       1.991341948872e-13       0.000000000000e+00       1.650408471603e-09       1.273717242634e-10      -2.009882796484e-14 
    8       1.107898711674e-10       5.953777264895e-16       1.571313906189e-13       0.000000000000e+00       1.362625941101e-09       1.077840124599e-10       7.721740904049e-14 
    9       1.101898953674e-10       4.766395461552e-16       1.290417587095e-13       0.000000000000e+00       1.145965253660e-09       9.261788119101e-11       1.046571548459e-13 
   10       1.100784337499e-10       4.060300962242e-16       1.135305358485e-13       0.000000000000e+00       9.784510830985e-10       8.063030431220e-11       8.797928302951e-14 
   11       1.104109097600e-10       3.415538664402e-16       1.079341985983e-13       0.000000000000e+00       8.254526586024e-10       7.127653837774e-11       5.125532429756e-14 
   12       1.110285115143e-10       2.980663524372e-16       1.091781556484e-13       0.000000000000e+00       7.209480475810e-10       6.301132221772e-11       1.195210037246e-14 
   13       1.118832127405e-10       2.862955661413e-16       1.145651686073e-13       0.000000000000e+00       6.351899246551e-10       5.631391962533e-11      -1.796132360446e-14 
   14       1.129420702535e-10       2.984410720224e-16       1.220767507702e-13       0.000000000000e+00       5.638669524303e-10       5.050545215950e-11      -3.425827005085e-14 
   15       1.141809104862e-10       3.230670054690e-16       1.303609731035e-13       0.000000000000e+00       5.038523078964e-10       4.561039624051e-11      -3.717495410684e-14 
   16       1.155200779928e-10       3.578918048842e-16       1.388019270327e-13       0.000000000000e+00       4.528432516058e-10       4.138375261841e-11      -3.059430156650e-14 
   17       1.169973923417e-10       4.082837562347e-16       1.472589794969e-13       0.000000000000e+00       4.091007660866e-10       3.769148901210e-11      -1.965193233802e-14 
   18       1.185482030625e-10       4.795025959486e-16       1.558645508918e-13       0.000000000000e+00       3.711472478925e-10       3.448498813314e-11      -9.197751816243e-15 
   19       1.201844700400e-10       5.719193287303e-16       1.648182597538e-13       0.000000000000e+00       3.383762706652e-10       3.171392990929e-11      -1.832370012415e-15 
   20       1.219011957362e-10       6.836490713162e-16       1.742993153194e-13       0.000000000000e+00       3.095220642600e-10       2.925165155389e-11       7.253324527079e-16 
   21       1.236965083432e-10       8.140764094155e-16       1.842982404108e-13       0.000000000000e+00       2.841292411681e-10       2.704971760186e-11      -9.587895873829e-16 
   22       1.255399066718e-10       9.626956370604e-16       1.946572210943e-13       0.000000000000e+00       2.615880457175e-10       2.505432802855e-11      -5.134856265134e-15 
   23       1.274398561079e-10       1.129625865970e-15       2.050048537331e-13       0.000000000000e+00       2.415871993732e-10       2.326481739003e-11      -1.005280667150e-14 
   24       1.293952110639e-10       1.315058054678e-15       2.148658055584e-13       0.000000000000e+00       2.236630380862e-10       2.167293661563e-11      -1.385475001774e-14 
   25       1.314036407088e-10       1.519390114953e-15       2.239774317718e-13       0.000000000000e+00       2.076037103992e-10       2.025021164015e-11      -1.574769098277e-14 
   26       1.334478635396e-10       1.743239949007e-15       2.321474357569e-13       0.000000000000e+00       1.931174847004e-10       1.894970340684e-11      -1.544210486133e-14 
   27       1.355275943945e-10       1.988315445550e-15       2.392822045216e-13       0.000000000000e+00       1.800298258836e-10       1.776171580435e-11      -1.354273208794e-14 
   28       1.376385593766e-10       2.256681730760e-15       2.453438503343e-13       0.000000000000e+00       1.681143585423e-10       1.667968804200e-11      -1.102184807892e-14 
   29       1.397892466330e-10       2.549811105522e-15       2.503746913472e-13       0.000000000000e+00       1.573098099975e-10       1.570046772659e-11      -8.509746203750e-15 
   30       1.419802107133e-10       2.869016560228e-15       2.544737733036e-13       0.000000000000e+00       1.474997341258e-10       1.481200664870e-11      -6.642095658470e-15 
   31       1.442015493154e-10       3.215550696725e-15       2.577468033603e-13       0.000000000000e+00       1.384834830744e-10       1.399392678421e-11      -6.008969876515e-15 
   32       1.464567377286e-10       3.590321244827e-15       2.601602081786e-13       0.000000000000e+00       1.302141944514e-10       1.323922353497e-11      -6.455507921973e-15 
   33       1.487450711696e-10       3.994055012568e-15       2.616321848830e-13       0.000000000000e+00       1.226331042748e-10       1.253905024448e-11      -7.507269468413e-15 
   34       1.510587076685e-10       4.427437543071e-15       2.620634008751e-13       0.000000000000e+00       1.156337714418e-10       1.188115465464e-11      -8.626967713251e-15 
   35       1.533986490056e-10       4.891378377602e-15       2.613166918822e-13       0.000000000000e+00       1.091801627599e-10       1.126676151430e-11      -9.520163373462e-15 
   36       1.557625902265e-10       5.386831102063e-15       2.592276162959e-13       0.000000000000e+00       1.032202941141e-10       1.069883875700e-11      -9.927596291224e-15 
   37       1.581442070050e-10       5.914694686805e-15       2.556435705008e-13       0.000000000000e+00       9.767635704764e-11       1.017748790256e-11      -9.634685861197e-15 
   38       1.605482969505e-10       6.475723160149e-15       2.505455039603e-13       0.000000000000e+00       9.253391513878e-11       9.700489468741e-12      -8.790882067107e-15 
   39       1.629795067521e-10       7.070579423075e-15       2.439668772986e-13       0.000000000000e+00       8.777656041162e-11       9.262407533203e-12      -7.699397781690e-15 
   40       1.654375912121e-10       7.699853419622e-15       2.359627596360e-13       0.000000000000e+00       8.335878553462e-11       8.854050599367e-12      -6.737909111520e-15 
   41       1.679195002590e-10       8.364099042430e-15       2.265875735037e-13       0.000000000000e+00       7.922181425405e-11       8.465319948233e-12      -6.259682991097e-15 
   42       1.704277496900e-10       9.063970590358e-15       2.158164663375e-13       0.000000000000e+00       7.535339066651e-11       8.095607416118e-12      -6.246677547582e-15 
   43       1.729638703466e-10       9.800122826203e-15       2.036005483023e-13       0.000000000000e+00       7.174318226881e-11       7.746266037024e-12      -6.551616746280e-15 
   44       1.755256678312e-10       1.057317140418e-14       1.898879444854e-13       0.000000000000e+00       6.836484026307e-11       7.417658762549e-12      -6.989657853308e-15 
   45       1.781092493522e-10       1.138368758530e-14       1.746279705047e-13       0.000000000000e+00       6.518539498287e-11       7.109356074471e-12      -7.379343691156e-15 
   46       1.807166698393e-10       1.223218484195e-14       1.577858832324e-13       0.000000000000e+00       6.219979531252e-11       6.821011041447e-12      -7.685525203286e-15 
   47       1.833499631971e-10       1.311912511398e-14       1.393320092040e-13       0.000000000000e+00       5.940452703695e-11       6.551593004741e-12      -7.915221420093e-15 
   48       1.860087414966e-10       1.404491991477e-14       1.192375876620e-13       0.000000000000e+00       5.678719628643e-11       6.299051404840e-12      -8.078225133795e-15 
   49       1.886899745726e-10       1.500992829030e-14       9.747471698620e-14       0.000000000000e+00       5.432586942821e-11       6.060242471961e-12      -8.187275395465e-15 
   50       1.913899499038e-10       1.601443111718e-14       7.401507961058e-14       0.000000000000e+00       5.199567064465e-11       5.831839919775e-12      -8.258573151056e-15 
   51       1.941112907518e-10       1.705855050760e-14       4.882583302886e-14       0.000000000000e+00       4.979221734427e-11       5.613528526622e-12      -8.313092959924e-15 
   52       1.968574620370e-10       1.814230499976e-14       2.187251085070e-14       0.000000000000e+00       4.771340499032e-11       5.405550695856e-12      -8.375925499152e-15 
   53       1.996306415473e-10       1.926562822707e-14      -6.879961583987e-15       0.000000000000e+00       4.575239438201e-11       5.207771854113e-12      -8.476149713024e-15 
   54       2.024316021362e-10       2.042836576375e-14      -3.746737825755e-14       0.000000000000e+00       4.389729308435e-11       5.019653447843e-12      -8.647021457768e-15 
   55       2.052603498858e-10       2.163033754316e-14      -6.991987887284e-14       0.000000000000e+00       4.213477826548e-11       4.840495092799e-12      -8.915383348088e-15 
   56       2.081184941118e-10       2.287155049774e-14      -1.042407194983e-13       0.000000000000e+00       4.046274894026e-11       4.670293328442e-12      -9.266381356890e-15 
   57       2.110072597805e-10       2.415203321810e-14      -1.404224226125e-13       0.000000000000e+00       3.888025881491e-11       4.509048897877e-12      -9.670313487546e-15 
   58       2.139266967042e-10       2.547177442173e-14      -1.784526611832e-13       0.000000000000e+00       3.738368884035e-11       4.356500128359e-12      -1.009241434873e-14 
   59       2.168755911926e-10       2.683072235323e-14      -2.183141170708e-13       0.000000000000e+00       3.596658220334e-11       4.212106414304e-12      -1.049262384598e-14 
   60       2.198513777055e-10       2.822878418473e-14      -2.599843394319e-13       0.000000000000e+00       3.461947931762e-11       4.075031700305e-12      -1.082535587327e-14 
   61       2.228513598714e-10       2.966574646320e-14      -3.034401536701e-13       0.000000000000e+00       3.333254164992e-11       3.944376638615e-12      -1.105004612539e-14 
   62       2.258768936807e-10       3.114101694292e-14      -3.486723650656e-13       0.000000000000e+00       3.210448471342e-11       3.819973321645e-12      -1.116608546232e-14 
   63       2.289299907533e-10       3.265382347670e-14      -3.956741192876e-13       0.000000000000e+00       3.093536649456e-11       3.701740437857e-12      -1.118535293754e-14 
   64       2.320120459515e-10       3.420328481201e-14      -4.444366458140e-13       0.000000000000e+00       2.982390054702e-11       3.589441882567e-12      -1.112223710904e-14 
   65       2.351237905778e-10       3.578840748626e-14      -4.949492607197e-13       0.000000000000e+00       2.876737947044e-11       3.482678131220e-12      -1.099374674426e-14 
   66       2.382652455717e-10       3.740808272192e-14      -5.471993694665e-13       0.000000000000e+00       2.776159838919e-11       3.380877612653e-12      -1.081962152500e-14 
   67       2.414356747070e-10       3.906108332180e-14      -6.011724696913e-13       0.000000000000e+00       2.680077843114e-11       3.283288082364e-12      -1.062244275232e-14 
   68       2.446342211887e-10       4.074618182515e-14      -6.568518765074e-13       0.000000000000e+00       2.587910851534e-11       3.189173054312e-12      -1.042323625394e-14 
   69       2.478620718491e-10       4.246253971772e-14      -7.142178275377e-13       0.000000000000e+00       2.499590453624e-11       3.098466598858e-12      -1.022699903829e-14 
   70       2.511206494109e-10       4.420939187070e-14      -7.732482007145e-13       0.000000000000e+00       2.415136290310e-11       3.011236336299e-12      -1.003442536009e-14 
   71       2.544109390896e-10       4.598593225416e-14      -8.339187714919e-13       0.000000000000e+00       2.334500022403e-11       2.927486796116e-12      -9.846150533759e-15 
   72       2.577334592685e-10       4.779131393363e-14      -8.962032085383e-13       0.000000000000e+00       2.257561817366e-11       2.847156034698e-12      -9.662746349397e-15 
   73       2.610882321746e-10       4.962464906655e-14      -9.600730694277e-13       0.000000000000e+00       2.184126836092e-11       2.770112253079e-12      -9.484716488748e-15 
   74       2.644747545538e-10       5.148500889877e-14      -1.025497796333e-12       0.000000000000e+00       2.113921719677e-11       2.696150414667e-12      -9.312491941191e-15 
   75       2.678919683464e-10       5.337142376114e-14      -1.092444711716e-12       0.000000000000e+00       2.046591076191e-11       2.624988862973e-12      -9.146426419712e-15 
   76       2.713388178701e-10       5.528283011386e-14      -1.160879064863e-12       0.000000000000e+00       1.981785616749e-11       2.556344654950e-12      -8.986925730647e-15 
   77       2.748161034923e-10       5.721790053923e-14      -1.230764190792e-12       0.000000000000e+00       1.919452884773e-11       2.490182897234e-12      -8.834873251738e-15 
   78       2.783249142773e-10       5.917518259688e-14      -1.302061372632e-12       0.000000000000e+00       1.859593406103e-11       2.426506943913e-12      -8.691274074286e-15 
   79       2.818660544492e-10       6.115314795389e-14      -1.374729790137e-12       0.000000000000e+00       1.802172135492e-11       2.365281975000e-12      -8.557126125050e-15 
   80       2.854400260938e-10       6.315019129544e-14      -1.448726516427e-12       0.000000000000e+00       1.747116822730e-11       2.306433228291e-12      -8.433418329059e-15 
   81       2.890470118613e-10       6.516462923553e-14      -1.524006514714e-12       0.000000000000e+00       1.694316378755e-11       2.249844231227e-12      -8.321128772420e-15 
   82       2.926868576679e-10       6.719469922762e-14      -1.600522635045e-12       0.000000000000e+00       1.643619241770e-11       2.195355032749e-12      -8.221222865123e-15 
   83       2.963590553991e-10       6.923855847535e-14      -1.678225611030e-12       0.000000000000e+00       1.594831743361e-11       2.142760435155e-12      -8.134651503857e-15 
   84       3.000630402511e-10       7.129435031290e-14      -1.757064701988e-12       0.000000000000e+00       1.547765129110e-11       2.091860352289e-12      -8.061950160880e-15 
   85       3.037991772862e-10       7.336041837627e-14      -1.836989748839e-12       0.000000000000e+00       1.502389155726e-11       2.042624349182e-12      -8.001963810960e-15 
   86       3.075679074734e-10       7.543512610491e-14      -1.917949454631e-12       0.000000000000e+00       1.458701079812e-11       1.995051264623e-12      -7.952906273121e-15 
   87       3.113694357574e-10       7.751679247283e-14      -1.999890776907e-12       0.000000000000e+00       1.416678463197e-11       1.949118631167e-12      -7.912732072097e-15 
   88       3.152037190490e-10       7.960369203323e-14      -2.082758935285e-12       0.000000000000e+00       1.376278356783e-11       1.904781783062e-12      -7.879127894012e-15 
   89       3.190704542150e-10       8.169405496309e-14      -2.166497419044e-12       0.000000000000e+00       1.337436484379e-11       1.861972964187e-12      -7.849504042067e-15 
   90       3.229690660692e-10       8.378606710782e-14      -2.251047994701e-12       0.000000000000e+00       1.300066426539e-11       1.820600435976e-12      -7.820985892219e-15 
   91       3.268986953623e-10       8.587787002589e-14      -2.336350713595e-12       0.000000000000e+00       1.264058804406e-11       1.780547585354e-12      -7.790405348871e-15 
   92       3.308581867723e-10       8.796756103347e-14      -2.422343919471e-12       0.000000000000e+00       1.229280463547e-11       1.741672032668e-12      -7.754292300549e-15 
   93       3.348464410029e-10       9.005322166938e-14      -2.508965004673e-12       0.000000000000e+00       1.195606039687e-11       1.703841472229e-12      -7.709664654883e-15 
   94       3.388635577385e-10       9.213300789033e-14      -2.596152792365e-12       0.000000000000e+00       1.163019859304e-11       1.667049297686e-12      -7.656552922150e-15 
   95       3.429098431852e-10       9.420507358671e-14      -2.683845528285e-12       0.000000000000e+00       1.131527927203e-11       1.631314798288e-12      -7.595841298442e-15 
   96       3.469854543615e-10       9.626754379983e-14      -2.771980181670e-12       0.000000000000e+00       1.101126543506e-11       1.596647593111e-12      -7.528505303424e-15 
   97       3.510903920870e-10       9.831851515671e-14      -2.860492463113e-12       0.000000000000e+00       1.071801931996e-11       1.563047243210e-12      -7.455614197983e-15 
   98       3.552244939707e-10       1.003560563048e-13      -2.949316842423e-12       0.000000000000e+00       1.043529868451e-11       1.530502863773e-12      -7.378333401877e-15 
   99       3.593874273998e-10       1.023782083467e-13      -3.038386566485e-12       0.000000000000e+00       1.016275308990e-11       1.498992736274e-12      -7.297926911391e-15 
  100       3.635786825273e-10       1.043829852751e-13      -3.127633677111e-12       0.000000000000e+00       9.899920184094e-12       1.468483920630e-12      -7.215759716982e-15 
  101       3.677975652612e-10       1.063683744071e-13      -3.216989028903e-12       0.000000000000e+00       9.646221985240e-12       1.438931867349e-12      -7.133300220932e-15 
  102       3.720431902525e-10       1.083323368195e-13      -3.306382307114e-12       0.000000000000e+00       9.400961165079e-12       1.410280029689e-12      -7.052122654999e-15 
  103       3.763144738837e-10       1.102728077831e-13      -3.395742045496e-12       0.000000000000e+00       9.163317332334e-12       1.382459475809e-12      -6.973909498066e-15 
  104       3.806103612113e-10       1.121877484821e-13      -3.484996223449e-12       0.000000000000e+00       8.932532875496e-12       1.355405122316e-12      -6.900094410759e-15 
  105       3.849305568098e-10       1.140753081916e-13      -3.574074110835e-12       0.000000000000e+00       8.708507087339e-12       1.329107767735e-12      -6.830730898906e-15 
  106       3.892748800419e-10       1.159336849202e-13      -3.662904706821e-12       0.000000000000e+00       8.491275742784e-12       1.303568397667e-12      -6.765474618735e-15 
  107       3.936430355337e-10       1.177610770683e-13      -3.751416206783e-12       0.000000000000e+00       8.280827092583e-12       1.278781988358e-12      -6.703927698451e-15 
