# dimensionless total [l(l+1)/2pi] C_l's
# for l=2 to 3000, i.e. number of multipoles equal to 2999
#
# -> if you prefer output in CAMB/HealPix/LensPix units/order, set 'format' to 'camb' in input file
# -> if you don't want to see such a header, set 'headers' to 'no' in input file
# -> for CMB lensing (phi), these are C_l^phi-phi for the lensing potential.
#    Remember the conversion factors:
#    C_l^dd (deflection) = l(l+1) C_l^phi-phi
#    C_l^gg (shear/convergence) = 1/4 (l(l+1))^2 C_l^phi-phi
#
# 1:l     2:TT                     3:EE                     4:TE                     5:BB                     6:phiphi                 7:TPhi                   8:Ephi               
    2       1.382789855372e-10       4.139171173403e-15       3.534439536741e-13       0.000000000000e+00       8.131010197544e-09       4.461707721510e-10      -1.834618008193e-12 
    3       1.309937806111e-10       5.308225339774e-15       3.961212225572e-13       0.000000000000e+00       4.995689466407e-09       3.176114517264e-10      -1.390212029455e-12 
    4       1.240364707164e-10       4.597793401119e-15       3.703916685969e-13       0.000000000000e+00       3.475501196806e-09       2.410279139218e-10      -9.104799441395e-13 
    5       1.188001519986e-10       3.072403075782e-15       3.157202024431e-13       0.000000000000e+00       2.593980666318e-09       1.907161238203e-10      -5.064079400536e-13 
    6       1.151901531615e-10       1.719965681507e-15       2.546469661038e-13       0.000000000000e+00       2.025679054727e-09       1.554172456510e-10      -2.084546794680e-13 
    7       1.128155811152e-10       9.288153958754e-16       2.002923127258e-13       0.000000000000e+00       1.633351882114e-09       1.294573129334e-10      -1.811712803147e-14 
    8       1.114136915542e-10       5.974645567106e-16       1.583725547958e-13       0.000000000000e+00       1.348571906028e-09       1.097451406391e-10       7.931549593570e-14 
    9       1.107490104561e-10       4.784195993217e-16       1.301456936905e-13       0.000000000000e+00       1.134215567132e-09       9.445773472817e-11       1.069289797370e-13 
   10       1.105784874117e-10       4.074193685557e-16       1.143383030011e-13       0.000000000000e+00       9.684890303771e-10       8.235408587604e-11       9.039036710954e-14 
   11       1.108605067565e-10       3.421644294740e-16       1.083845919984e-13       0.000000000000e+00       8.170526169767e-10       7.288640447210e-11       5.371308779725e-14 
   12       1.114322391936e-10       2.976833430675e-16       1.093041565283e-13       0.000000000000e+00       7.136708527974e-10       6.450743305722e-11       1.432882822627e-14 
   13       1.122438871068e-10       2.851445764466e-16       1.144743444061e-13       0.000000000000e+00       6.288335457018e-10       5.770685776987e-11      -1.576383298638e-14 
   14       1.132693357020e-10       2.970457948036e-16       1.219118376185e-13       0.000000000000e+00       5.582756355982e-10       5.181494732231e-11      -3.228971220226e-14 
   15       1.144768623152e-10       3.219301925040e-16       1.302404773848e-13       0.000000000000e+00       4.989028844202e-10       4.683552513583e-11      -3.545952960772e-14 
   16       1.157851537382e-10       3.572885807911e-16       1.388029912820e-13       0.000000000000e+00       4.484374301138e-10       4.252845523577e-11      -2.910529776560e-14 
   17       1.172339230650e-10       4.082394092918e-16       1.474080713527e-13       0.000000000000e+00       4.051590661165e-10       3.876072349883e-11      -1.833649817741e-14 
   18       1.187602506821e-10       4.798794342125e-16       1.561336705846e-13       0.000000000000e+00       3.676062675790e-10       3.548728838374e-11      -7.995431114118e-15 
   19       1.203765412614e-10       5.725131512860e-16       1.651548340930e-13       0.000000000000e+00       3.351794878791e-10       3.265685809126e-11      -6.943493371618e-16 
   20       1.220769471016e-10       6.842317989944e-16       1.746399932425e-13       0.000000000000e+00       3.066265900625e-10       3.013815426110e-11       1.822850577313e-15 
   21       1.238573168741e-10       8.144771551193e-16       1.845913175930e-13       0.000000000000e+00       2.814973037226e-10       2.788259533011e-11       1.023983364326e-16 
   22       1.256846076716e-10       9.628490786799e-16       1.948761085977e-13       0.000000000000e+00       2.591885819878e-10       2.583728538786e-11      -4.124652282894e-15 
   23       1.275693344321e-10       1.129566069643e-15       2.051500447211e-13       0.000000000000e+00       2.393926425127e-10       2.400319835613e-11      -9.110107239935e-15 
   24       1.295131934620e-10       1.314917111624e-15       2.149650817569e-13       0.000000000000e+00       2.216508579609e-10       2.237275911612e-11      -1.299241214129e-14 
   25       1.315114073341e-10       1.519326695046e-15       2.240617400019e-13       0.000000000000e+00       2.057537744600e-10       2.091382852524e-11      -1.497696825756e-14 
   26       1.335431504593e-10       1.743401274458e-15       2.322415098412e-13       0.000000000000e+00       1.914128598063e-10       1.957497334660e-11      -1.477086777608e-14 
   27       1.356105782892e-10       1.988780873872e-15       2.394033663166e-13       0.000000000000e+00       1.784555251853e-10       1.834969862729e-11      -1.296471746546e-14 
   28       1.377133130946e-10       2.257443954968e-15       2.455001221735e-13       0.000000000000e+00       1.666578489898e-10       1.723635337552e-11      -1.051423317628e-14 
   29       1.398594266617e-10       2.550834907106e-15       2.505653982271e-13       0.000000000000e+00       1.559593044558e-10       1.623103410006e-11      -8.046858078233e-15 
   30       1.420472634132e-10       2.870255761884e-15       2.546879709355e-13       0.000000000000e+00       1.462447374237e-10       1.531839386282e-11      -6.200854516736e-15 
   31       1.442646617660e-10       3.216950485192e-15       2.579642384660e-13       0.000000000000e+00       1.373156361992e-10       1.447467398444e-11      -5.571591790487e-15 
   32       1.465153176370e-10       3.591830049874e-15       2.603645731953e-13       0.000000000000e+00       1.291256920008e-10       1.369365971468e-11      -6.014414786927e-15 
   33       1.487996476300e-10       3.995630916809e-15       2.618169090534e-13       0.000000000000e+00       1.216167956689e-10       1.296880039407e-11      -7.069060190849e-15 
   34       1.511107911545e-10       4.429056143610e-15       2.622321327571e-13       0.000000000000e+00       1.146836298815e-10       1.228990358670e-11      -8.211514781358e-15 
   35       1.534491801604e-10       4.893052978824e-15       2.614756188224e-13       0.000000000000e+00       1.082905721100e-10       1.165769018110e-11      -9.143808688929e-15 
   36       1.558112870386e-10       5.388625947561e-15       2.593831611906e-13       0.000000000000e+00       1.023861971944e-10       1.107353430192e-11      -9.596571766816e-15 
   37       1.581896567828e-10       5.916718548600e-15       2.558018073978e-13       0.000000000000e+00       9.689350565787e-11       1.053589353844e-11      -9.344839355677e-15 
   38       1.605894020699e-10       6.478064230114e-15       2.507101539852e-13       0.000000000000e+00       9.179824331631e-11       1.004245588211e-11      -8.535289390094e-15 
   39       1.630160249232e-10       7.073279101215e-15       2.441381874179e-13       0.000000000000e+00       8.708419840765e-11       9.588148481153e-12      -7.470605747023e-15 
   40       1.654703289500e-10       7.702894865266e-15       2.361366948744e-13       0.000000000000e+00       8.270633925329e-11       9.164169715704e-12      -6.528087439040e-15 
   41       1.679502058745e-10       8.367412985171e-15       2.267562037860e-13       0.000000000000e+00       7.860648993434e-11       8.760765516547e-12      -6.061262415484e-15 
   42       1.704579580376e-10       9.067501452589e-15       2.159725290664e-13       0.000000000000e+00       7.477253698869e-11       8.377382919965e-12      -6.054598030743e-15 
   43       1.729944749918e-10       9.803852924789e-15       2.037391076155e-13       0.000000000000e+00       7.119426579744e-11       8.015305375345e-12      -6.364516948733e-15 
   44       1.755567671853e-10       1.057712933852e-14       1.900069549813e-13       0.000000000000e+00       6.784559479154e-11       7.674761711985e-12      -6.810687411130e-15 
   45       1.781401996245e-10       1.138794364934e-14       1.747282187755e-13       0.000000000000e+00       6.469388241619e-11       7.355167098951e-12      -7.215626067638e-15 
   46       1.807468542203e-10       1.223680170852e-14       1.578687607150e-13       0.000000000000e+00       6.173414202225e-11       7.056155368034e-12      -7.542977583565e-15 
   47       1.833790430232e-10       1.312414072209e-14       1.393988633196e-13       0.000000000000e+00       5.896290764974e-11       6.776693952844e-12      -7.796711506000e-15 
   48       1.860367128460e-10       1.405034239926e-14       1.192896693049e-13       0.000000000000e+00       5.636791501679e-11       6.514701301284e-12      -7.982973621900e-15 
   49       1.887172279554e-10       1.501573063343e-14       9.751312428975e-14       0.000000000000e+00       5.392744735647e-11       6.266971355080e-12      -8.110226172332e-15 
   50       1.914172239762e-10       1.602055444643e-14       7.404077078287e-14       0.000000000000e+00       5.161687153375e-11       6.030104816966e-12      -8.190914393628e-15 
   51       1.941392670049e-10       1.706493674364e-14       4.883987714015e-14       0.000000000000e+00       4.943185561227e-11       5.803776165233e-12      -8.246674136945e-15 
   52       1.968866264071e-10       1.814890764046e-14       2.187615882214e-14       0.000000000000e+00       4.737032267245e-11       5.588222891588e-12      -8.304780167090e-15 
   53       1.996612445911e-10       1.927241504226e-14      -6.885273431147e-15       0.000000000000e+00       4.542550303849e-11       5.383288745376e-12      -8.396950391803e-15 
   54       2.024636171685e-10       2.043532163188e-14      -3.748002495073e-14       0.000000000000e+00       4.358561848128e-11       5.188395591356e-12      -8.559557903157e-15 
   55       2.052934973868e-10       2.163746525720e-14      -6.993827063411e-14       0.000000000000e+00       4.183747254154e-11       5.002797256154e-12      -8.822357921005e-15 
   56       2.081524888927e-10       2.287886456255e-14      -1.042642722639e-13       0.000000000000e+00       4.017898941908e-11       4.826479385174e-12      -9.170903421131e-15 
   57       2.110418871593e-10       2.415955916389e-14      -1.404519678904e-13       0.000000000000e+00       3.860923686954e-11       4.659433836143e-12      -9.575164149423e-15 
   58       2.139618258317e-10       2.547955019381e-14      -1.784906542986e-13       0.000000000000e+00       3.712463294573e-11       4.501379493715e-12      -9.999963383590e-15 
   59       2.169111890026e-10       2.683879975908e-14      -2.183648545456e-13       0.000000000000e+00       3.571878238717e-11       4.351745113815e-12      -1.040474250320e-14 
   60       2.198875234873e-10       2.823723039834e-14      -2.600541854990e-13       0.000000000000e+00       3.438231300948e-11       4.209652167988e-12      -1.074332555974e-14 
   61       2.228882323033e-10       2.967464084318e-14      -3.035371483400e-13       0.000000000000e+00       3.310547658171e-11       4.074159062070e-12      -1.097457348694e-14 
   62       2.259146666099e-10       3.115043243318e-14      -3.488037939719e-13       0.000000000000e+00       3.188700379086e-11       3.945096660728e-12      -1.109767389083e-14 
   63       2.289688007599e-10       3.266382004987e-14      -3.958456783803e-13       0.000000000000e+00       3.072695558483e-11       3.822390715862e-12      -1.112439070632e-14 
   64       2.320519860032e-10       3.421390725969e-14      -4.446521826978e-13       0.000000000000e+00       2.962405968133e-11       3.705808354471e-12      -1.106898144577e-14 
   65       2.351649034142e-10       3.579968311601e-14      -4.952105052153e-13       0.000000000000e+00       2.857563467240e-11       3.594949216211e-12      -1.094830728910e-14 
   66       2.383075168191e-10       3.742001896114e-14      -5.475056533920e-13       0.000000000000e+00       2.757751412901e-11       3.489236590953e-12      -1.078194317388e-14 
   67       2.414790257227e-10       3.907366522828e-14      -6.015204358665e-13       0.000000000000e+00       2.662397070560e-11       3.387908556335e-12      -1.059228788542e-14 
   68       2.446785191855e-10       4.075937444413e-14      -6.572358312227e-13       0.000000000000e+00       2.570924489346e-11       3.290217580104e-12      -1.040019558120e-14 
   69       2.479071965294e-10       4.247630632687e-14      -7.146321989167e-13       0.000000000000e+00       2.483266063619e-11       3.196096102561e-12      -1.021059640369e-14 
   70       2.511665141093e-10       4.422369940379e-14      -7.736883004908e-13       0.000000000000e+00       2.399441469335e-11       3.105610517418e-12      -1.002414660867e-14 
   71       2.544574955530e-10       4.600075210253e-14      -8.343809461440e-13       0.000000000000e+00       2.319402947499e-11       3.018761172204e-12      -9.841444961720e-15 
   72       2.577807026161e-10       4.780662278074e-14      -8.966849963787e-13       0.000000000000e+00       2.243031818579e-11       2.935478837401e-12      -9.663028286995e-15 
   73       2.611362060356e-10       4.964042975566e-14      -9.605733636467e-13       0.000000000000e+00       2.170134996924e-11       2.855621175583e-12      -9.489367016013e-15 
   74       2.645235563845e-10       5.150125133382e-14      -1.026017013996e-12       0.000000000000e+00       2.100441505183e-11       2.778969210551e-12      -9.320860736423e-15 
   75       2.679417549258e-10       5.338812584060e-14      -1.092984968717e-12       0.000000000000e+00       2.033598988722e-11       2.705223796466e-12      -9.157833740781e-15 
   76       2.713897955934e-10       5.529999670219e-14      -1.161443934645e-12       0.000000000000e+00       1.969261134417e-11       2.634085142576e-12      -9.000672989052e-15 
   77       2.748684694629e-10       5.723553606407e-14      -1.231357113612e-12       0.000000000000e+00       1.907376035974e-11       2.565515934487e-12      -8.850280880396e-15 
   78       2.783788379113e-10       5.919328891288e-14      -1.302685177871e-12       0.000000000000e+00       1.847944325125e-11       2.499520002377e-12      -8.707697343124e-15 
   79       2.819216735300e-10       6.117172409139e-14      -1.375386616314e-12       0.000000000000e+00       1.790931336974e-11       2.436061723864e-12      -8.573963239505e-15 
   80       2.854974426907e-10       6.316923320142e-14      -1.449417728499e-12       0.000000000000e+00       1.736265488486e-11       2.375064196258e-12      -8.450118834846e-15 
   81       2.891062881104e-10       6.518412950668e-14      -1.524732618682e-12       0.000000000000e+00       1.683836656967e-11       2.316407408828e-12      -8.337202266588e-15 
   82       2.927480114178e-10       6.721464683571e-14      -1.601283189850e-12       0.000000000000e+00       1.633494558554e-11       2.259926415050e-12      -8.236248013378e-15 
   83       2.964220557182e-10       6.925893848470e-14      -1.679019137755e-12       0.000000000000e+00       1.585047126696e-11       2.205409504875e-12      -8.148285364166e-15 
   84       3.001278128723e-10       7.131514436471e-14      -1.757888822866e-12       0.000000000000e+00       1.538307163691e-11       2.152650242285e-12      -8.073931768288e-15 
   85       3.038656420506e-10       7.338160763629e-14      -1.837842065415e-12       0.000000000000e+00       1.493244733181e-11       2.101617493519e-12      -8.012098782044e-15 
   86       3.076359888533e-10       7.545669214375e-14      -1.918827804926e-12       0.000000000000e+00       1.449857175597e-11       2.052310365909e-12      -7.961067791184e-15 
   87       3.114390638109e-10       7.753871741310e-14      -2.000793272141e-12       0.000000000000e+00       1.408122283063e-11       2.004705939885e-12      -7.918867839312e-15 
   88       3.152748304064e-10       7.962595870192e-14      -2.083683997806e-12       0.000000000000e+00       1.367997489189e-11       1.958758346527e-12      -7.883267288256e-15 
   89       3.191429930991e-10       8.171664704917e-14      -2.167443821464e-12       0.000000000000e+00       1.329419058872e-11       1.914397845130e-12      -7.851765478429e-15 
   90       3.230429853469e-10       8.380896932507e-14      -2.252014900233e-12       0.000000000000e+00       1.292301278090e-11       1.871529900755e-12      -7.821584389189e-15 
   91       3.269739576298e-10       8.590106828095e-14      -2.337337717598e-12       0.000000000000e+00       1.256535643703e-11       1.830034261791e-12      -7.789660299203e-15 
   92       3.309347654725e-10       8.799104259906e-14      -2.423351092197e-12       0.000000000000e+00       1.221990053244e-11       1.789764037509e-12      -7.752635446812e-15 
   93       3.349243200461e-10       9.007697487888e-14      -2.509992828781e-12       0.000000000000e+00       1.188540132366e-11       1.750582640457e-12      -7.707618628251e-15 
   94       3.389427263056e-10       9.215702030253e-14      -2.597201763990e-12       0.000000000000e+00       1.156170366634e-11       1.712482972895e-12      -7.654615961975e-15 
   95       3.429902946805e-10       9.422933145883e-14      -2.684916045940e-12       0.000000000000e+00       1.124886752748e-11       1.675484543913e-12      -7.594451993407e-15 
   96       3.470671868423e-10       9.629203202260e-14      -2.773072536831e-12       0.000000000000e+00       1.094685652052e-11       1.639596804524e-12      -7.528035517361e-15 
   97       3.511734087046e-10       9.834321718802e-14      -2.861606830550e-12       0.000000000000e+00       1.065553421481e-11       1.604818744988e-12      -7.456361793492e-15 
   98       3.553088034228e-10       1.003809541019e-13      -2.950453270268e-12       0.000000000000e+00       1.037466044504e-11       1.571138492132e-12      -7.380514761744e-15 
   99       3.594730443947e-10       1.024032822971e-13      -3.039544966049e-12       0.000000000000e+00       1.010388762069e-11       1.538532906674e-12      -7.301669257790e-15 
  100       3.636656282600e-10       1.044082141258e-13      -3.128813812445e-12       0.000000000000e+00       9.842757035502e-12       1.506967180541e-12      -7.221093228487e-15 
  101       3.678858679009e-10       1.063937351926e-13      -3.218190506103e-12       0.000000000000e+00       9.590695176935e-12       1.476394434194e-12      -7.140149947315e-15 
  102       3.721328854416e-10       1.083578047885e-13      -3.307604563362e-12       0.000000000000e+00       9.347010035593e-12       1.446755313952e-12      -7.060300229829e-15 
  103       3.764056052486e-10       1.102983563233e-13      -3.396984337860e-12       0.000000000000e+00       9.110887414694e-12       1.417977589308e-12      -6.983104649103e-15 
  104       3.807029782868e-10       1.122133493303e-13      -3.486257644330e-12       0.000000000000e+00       8.881575424214e-12       1.389993138649e-12      -6.909894438547e-15 
  105       3.850247047802e-10       1.141009325436e-13      -3.575353688067e-12       0.000000000000e+00       8.658974295898e-12       1.362792386900e-12      -6.840728798288e-15 
  106       3.893705965768e-10       1.159593037606e-13      -3.664201430136e-12       0.000000000000e+00       8.443119734338e-12       1.336376505139e-12      -6.775300210595e-15 
  107       3.937403501058e-10       1.177866612262e-13      -3.752729028414e-12       0.000000000000e+00       8.234000244168e-12       1.310740469833e-12      -6.713251766402e-15 
