# dimensionless total [l(l+1)/2pi] C_l's
# for l=2 to 3000, i.e. number of multipoles equal to 2999
#
# -> if you prefer output in CAMB/HealPix/LensPix units/order, set 'format' to 'camb' in input file
# -> if you don't want to see such a header, set 'headers' to 'no' in input file
# -> for CMB lensing (phi), these are C_l^phi-phi for the lensing potential.
#    Remember the conversion factors:
#    C_l^dd (deflection) = l(l+1) C_l^phi-phi
#    C_l^gg (shear/convergence) = 1/4 (l(l+1))^2 C_l^phi-phi
#
# 1:l     2:TT                     3:EE                     4:TE                     5:BB                     6:phiphi                 7:TPhi                   8:Ephi               
    2       1.370438908199e-10       4.143166530099e-15       3.537305932168e-13       0.000000000000e+00       8.179990604569e-09       4.432423597368e-10      -1.839547980230e-12 
    3       1.298424346475e-10       5.312112358614e-15       3.966278493262e-13       0.000000000000e+00       5.036765138599e-09       3.146475095471e-10      -1.394574000040e-12 
    4       1.230003774246e-10       4.599218200824e-15       3.707027288393e-13       0.000000000000e+00       3.505570931640e-09       2.381067734265e-10      -9.139880189052e-13 
    5       1.178815282161e-10       3.071433235839e-15       3.155618881290e-13       0.000000000000e+00       2.616377317709e-09       1.879379277708e-10      -5.092739433410e-13 
    6       1.143773460885e-10       1.717978264631e-15       2.539740517428e-13       0.000000000000e+00       2.042852985818e-09       1.528124859889e-10      -2.108844857617e-13 
    7       1.120952245254e-10       9.268009959879e-16       1.992504186397e-13       0.000000000000e+00       1.646775707551e-09       1.270268951568e-10      -2.034204061176e-14 
    8       1.107747543281e-10       5.956536835537e-16       1.572048323822e-13       0.000000000000e+00       1.359159347026e-09       1.074922495310e-10       7.712746435591e-14 
    9       1.101854999883e-10       4.768110206618e-16       1.290985435163e-13       0.000000000000e+00       1.142603365287e-09       9.238679156673e-11       1.046988308127e-13 
   10       1.100757083549e-10       4.062245030334e-16       1.135898074046e-13       0.000000000000e+00       9.753254876893e-10       8.045783035291e-11       8.812058418573e-14 
   11       1.104127008224e-10       3.417311851782e-16       1.080026224683e-13       0.000000000000e+00       8.231380273938e-10       7.115581191188e-11       5.147398866656e-14 
   12       1.110344141857e-10       2.981582184480e-16       1.092395773322e-13       0.000000000000e+00       7.188654501047e-10       6.289989011511e-11       1.218358513047e-14 
   13       1.118830688362e-10       2.863080669087e-16       1.146155770516e-13       0.000000000000e+00       6.333050615477e-10       5.621553913832e-11      -1.773372290154e-14 
   14       1.129530271029e-10       2.984522324456e-16       1.221314678479e-13       0.000000000000e+00       5.621543549458e-10       5.045262151176e-11      -3.401145015328e-14 
   15       1.141954602893e-10       3.231671711489e-16       1.304185114156e-13       0.000000000000e+00       5.022896316085e-10       4.557476075380e-11      -3.694614461689e-14 
   16       1.155352649753e-10       3.581552461284e-16       1.388557924537e-13       0.000000000000e+00       4.514119338895e-10       4.135709873055e-11      -3.038499202177e-14 
   17       1.170077216499e-10       4.087534690437e-16       1.473243606409e-13       0.000000000000e+00       4.077853468833e-10       3.766970702011e-11      -1.945989458615e-14 
   18       1.185590814096e-10       4.801957431966e-16       1.559388888484e-13       0.000000000000e+00       3.699352214092e-10       3.447431906968e-11      -9.015469182327e-15 
   19       1.202029392273e-10       5.728191923761e-16       1.648978521140e-13       0.000000000000e+00       3.372555950657e-10       3.171790421541e-11      -1.651944358590e-15 
   20       1.219297743470e-10       6.847066509341e-16       1.743880309016e-13       0.000000000000e+00       3.084837262775e-10       2.926469466689e-11       9.067996773981e-16 
   21       1.237319697815e-10       8.152690952079e-16       1.843935860352e-13       0.000000000000e+00       2.831649972202e-10       2.706629721678e-11      -7.794486051942e-16 
   22       1.255741134084e-10       9.640471127339e-16       1.947475222033e-13       0.000000000000e+00       2.606908176535e-10       2.507304584588e-11      -4.966498276060e-15 
   23       1.274705893438e-10       1.131161583424e-15       2.050866202245e-13       0.000000000000e+00       2.407504895990e-10       2.328985992669e-11      -9.900743508609e-15 
   24       1.294282857156e-10       1.316797276463e-15       2.149471773917e-13       0.000000000000e+00       2.228814375009e-10       2.171234230030e-11      -1.371712396504e-14 
   25       1.314387867512e-10       1.521385870236e-15       2.240570477378e-13       0.000000000000e+00       2.068722244110e-10       2.030110342112e-11      -1.561790030369e-14 
   26       1.334761843505e-10       1.745584385912e-15       2.322105419713e-13       0.000000000000e+00       1.924317904004e-10       1.899640679360e-11      -1.531170812331e-14 
   27       1.355477090097e-10       1.991077943519e-15       2.393246784778e-13       0.000000000000e+00       1.793860141517e-10       1.779928218411e-11      -1.341337828014e-14 
   28       1.376605261034e-10       2.259889127651e-15       2.453780354806e-13       0.000000000000e+00       1.675091199219e-10       1.671967539147e-11      -1.090695898354e-14 
   29       1.398215545412e-10       2.553476530025e-15       2.504102645017e-13       0.000000000000e+00       1.567399515996e-10       1.575202128016e-11      -8.416221218818e-15 
   30       1.420245026860e-10       2.873147308729e-15       2.545099621687e-13       0.000000000000e+00       1.469623541127e-10       1.487426048040e-11      -6.562174651809e-15 
   31       1.442526911157e-10       3.220151139068e-15       2.577726979905e-13       0.000000000000e+00       1.379762330595e-10       1.405644411113e-11      -5.921647304051e-15 
   32       1.465105868979e-10       3.595408896435e-15       2.601672423734e-13       0.000000000000e+00       1.297348335829e-10       1.329443741678e-11      -6.347048845445e-15 
   33       1.488014816786e-10       3.999668900749e-15       2.616191175672e-13       0.000000000000e+00       1.221795501257e-10       1.258732962306e-11      -7.380099070693e-15 
   34       1.511211851194e-10       4.433637235982e-15       2.620355910988e-13       0.000000000000e+00       1.152042513981e-10       1.193038845746e-11      -8.498715416307e-15 
   35       1.534689923830e-10       4.898221005110e-15       2.612759565722e-13       0.000000000000e+00       1.087729856361e-10       1.132311683208e-11      -9.404542191223e-15 
   36       1.558387520018e-10       5.394362564325e-15       2.591681213545e-13       0.000000000000e+00       1.028338998105e-10       1.076320635953e-11      -9.826973163906e-15 
   37       1.582206270194e-10       5.922949443174e-15       2.555526964075e-13       0.000000000000e+00       9.730940305705e-11       1.024558276987e-11      -9.540526873032e-15 
   38       1.606204009790e-10       6.484734357421e-15       2.504136833959e-13       0.000000000000e+00       9.218509307682e-11       9.767837173998e-12      -8.695491567413e-15 
   39       1.630454288210e-10       7.080381997688e-15       2.437914678980e-13       0.000000000000e+00       8.744461215009e-11       9.326035623172e-12      -7.600066571396e-15 
   40       1.654988360745e-10       7.710484468042e-15       2.357496455764e-13       0.000000000000e+00       8.304260281663e-11       8.912907994691e-12      -6.638141677770e-15 
   41       1.679806350702e-10       8.375596911345e-15       2.263502318216e-13       0.000000000000e+00       7.892048313723e-11       8.520240191572e-12      -6.168628866399e-15 
   42       1.704927003113e-10       9.076369557953e-15       2.155661910036e-13       0.000000000000e+00       7.506602780742e-11       8.147657249858e-12      -6.172280173731e-15 
   43       1.730345797487e-10       9.813450804115e-15       2.033428088124e-13       0.000000000000e+00       7.146892633614e-11       7.796230369312e-12      -6.498133929954e-15 
   44       1.756016463042e-10       1.058744876285e-14       1.896210543313e-13       0.000000000000e+00       6.810290570634e-11       7.465959479938e-12      -6.956833064320e-15 
   45       1.781877720245e-10       1.139892930182e-14       1.743434113912e-13       0.000000000000e+00       6.493509582704e-11       7.156059750824e-12      -7.362633873978e-15 
   46       1.807952101794e-10       1.224841394384e-14       1.574743748991e-13       0.000000000000e+00       6.196045807415e-11       6.866147290919e-12      -7.679990673108e-15 
   47       1.834270133219e-10       1.313637810017e-14       1.389854155804e-13       0.000000000000e+00       5.917548878429e-11       6.595246208817e-12      -7.916764837060e-15 
   48       1.860840280088e-10       1.406324921657e-14       1.188492561979e-13       0.000000000000e+00       5.656783647362e-11       6.341366611474e-12      -8.083833954252e-15 
   49       1.887646863688e-10       1.502940486602e-14       9.703983811808e-14       0.000000000000e+00       5.411564411057e-11       6.101431510046e-12      -8.195278821702e-15 
   50       1.914665648296e-10       1.603514049276e-14       7.353059742626e-14       0.000000000000e+00       5.179412294403e-11       5.872168811884e-12      -8.268567289350e-15 
   51       1.941920426559e-10       1.708056674697e-14       4.828881919318e-14       0.000000000000e+00       4.959890353994e-11       5.653242312432e-12      -8.324730793588e-15 
   52       1.969438190701e-10       1.816568098595e-14       2.127969294599e-14       0.000000000000e+00       4.752788619779e-11       5.444844227950e-12      -8.388558974999e-15 
   53       1.997231580362e-10       1.929039193108e-14      -7.532241122673e-15       0.000000000000e+00       4.557425348554e-11       5.246777367107e-12      -8.488789432114e-15 
   54       2.025297629886e-10       2.045451633240e-14      -3.818320513887e-14       0.000000000000e+00       4.372615282086e-11       5.058427452640e-12      -8.658294568658e-15 
   55       2.053626702436e-10       2.165784863881e-14      -7.070351138810e-14       0.000000000000e+00       4.197030651401e-11       4.879020686071e-12      -8.923621989937e-15 
   56       2.082234761224e-10       2.290039791758e-14      -1.050953460095e-13       0.000000000000e+00       4.030461926819e-11       4.708534778339e-12      -9.270144848218e-15 
   57       2.111136920918e-10       2.418220394849e-14      -1.413496641949e-13       0.000000000000e+00       3.872814666910e-11       4.546965757945e-12      -9.668581372604e-15 
   58       2.140337126003e-10       2.550326889451e-14      -1.794523437131e-13       0.000000000000e+00       3.723728130526e-11       4.394046352194e-12      -1.008465982283e-14 
   59       2.169827294950e-10       2.686355681074e-14      -2.193840335373e-13       0.000000000000e+00       3.582558836729e-11       4.249229422218e-12      -1.047889053970e-14 
   60       2.199586464398e-10       2.826299315343e-14      -2.611200024735e-13       0.000000000000e+00       3.448364124711e-11       4.111671398002e-12      -1.080633799558e-14 
   61       2.229591903747e-10       2.970138067353e-14      -3.046351620844e-13       0.000000000000e+00       3.320163596137e-11       3.980467742283e-12      -1.102703648430e-14 
   62       2.259857310403e-10       3.117812614782e-14      -3.499207953988e-13       0.000000000000e+00       3.197829209480e-11       3.855458578152e-12      -1.114048486444e-14 
   63       2.290401708208e-10       3.269245115915e-14      -3.969713316166e-13       0.000000000000e+00       3.081366712951e-11       3.736575321333e-12      -1.115852526786e-14 
   64       2.321237766956e-10       3.424346721745e-14      -4.457795157065e-13       0.000000000000e+00       2.970647919966e-11       3.623596209658e-12      -1.109549028314e-14 
   65       2.352371326379e-10       3.583017261562e-14      -4.963364212103e-13       0.000000000000e+00       2.865403086063e-11       3.516137734778e-12      -1.096831272066e-14 
   66       2.383800920136e-10       3.745144928546e-14      -5.486314630471e-13       0.000000000000e+00       2.765213285830e-11       3.413646073871e-12      -1.079663537767e-14 
   67       2.415517299800e-10       3.910605965357e-14      -6.026524103182e-13       0.000000000000e+00       2.669502789832e-11       3.315388521352e-12      -1.060292080338e-14 
   68       2.447510334610e-10       4.079276625722e-14      -6.583846295539e-13       0.000000000000e+00       2.577692658718e-11       3.220645875928e-12      -1.040805909802e-14 
   69       2.479792398231e-10       4.251072576456e-14      -7.158086077752e-13       0.000000000000e+00       2.489714705185e-11       3.129354021977e-12      -1.021691249352e-14 
   70       2.512378887411e-10       4.425916951196e-14      -7.749019482359e-13       0.000000000000e+00       2.405588458312e-11       3.041577554302e-12      -1.003002545322e-14 
   71       2.545280983276e-10       4.603728780382e-14      -8.356400888180e-13       0.000000000000e+00       2.325265723701e-11       2.957316957946e-12      -9.847862198651e-15 
   72       2.578505363956e-10       4.784422990814e-14      -8.979962951544e-13       0.000000000000e+00       2.248627083604e-11       2.876505179424e-12      -9.670801334794e-15 
   73       2.612053917215e-10       4.967910405208e-14      -9.619416537519e-13       0.000000000000e+00       2.175478397046e-11       2.799004197949e-12      -9.499130475409e-15 
   74       2.645923453070e-10       5.154097741754e-14      -1.027445065113e-12       0.000000000000e+00       2.105547299954e-11       2.724601596669e-12      -9.333040868303e-15 
   75       2.680105416421e-10       5.342887613668e-14      -1.094473236860e-12       0.000000000000e+00       2.038479705282e-11       2.653007133898e-12      -9.172622020615e-15 
   76       2.714590921005e-10       5.534173263498e-14      -1.162990740604e-12       0.000000000000e+00       1.973927610802e-11       2.583930091753e-12      -9.018030815791e-15 
   77       2.749387546288e-10       5.727821658446e-14      -1.232960209732e-12       0.000000000000e+00       1.911838744900e-11       2.517335185390e-12      -8.870046348999e-15 
   78       2.784505095696e-10       5.923687297269e-14      -1.304342165362e-12       0.000000000000e+00       1.852213625918e-11       2.453227307485e-12      -8.729606973929e-15 
   79       2.819950371645e-10       6.121617095393e-14      -1.377094950313e-12       0.000000000000e+00       1.795017339001e-11       2.391573147083e-12      -8.597643019357e-15 
   80       2.855726997286e-10       6.321450276512e-14      -1.451174723535e-12       0.000000000000e+00       1.740177908563e-11       2.332299417243e-12      -8.475074992524e-15 
   81       2.891835238244e-10       6.523018264164e-14      -1.526535454538e-12       0.000000000000e+00       1.687584670746e-11       2.275291082668e-12      -8.362811782521e-15 
   82       2.928271824368e-10       6.726144573326e-14      -1.603128917825e-12       0.000000000000e+00       1.637086645886e-11       2.220389587346e-12      -8.261748863665e-15 
   83       2.965029771471e-10       6.930644702002e-14      -1.680904687318e-12       0.000000000000e+00       1.588490910978e-11       2.167391082189e-12      -8.172766498882e-15 
   84       3.002101771634e-10       7.136332768229e-14      -1.759811066280e-12       0.000000000000e+00       1.541609437321e-11       2.116096486285e-12      -8.096378566324e-15 
   85       3.039491400358e-10       7.343042922779e-14      -1.839798066399e-12       0.000000000000e+00       1.496412089998e-11       2.066475088446e-12      -8.031616084517e-15 
   86       3.077203449136e-10       7.550611303969e-14      -1.920814914657e-12       0.000000000000e+00       1.452896126391e-11       2.018524943897e-12      -7.976954444756e-15 
   87       3.115240405544e-10       7.758869612735e-14      -2.002809171752e-12       0.000000000000e+00       1.411039185143e-11       1.972222564159e-12      -7.930638775973e-15 
   88       3.153602334960e-10       7.967645117588e-14      -2.085726742253e-12       0.000000000000e+00       1.370798473162e-11       1.927522015840e-12      -7.890676276237e-15 
   89       3.192286762287e-10       8.176760659570e-14      -2.169511884748e-12       0.000000000000e+00       1.332109952624e-11       1.884354019431e-12      -7.854828544258e-15 
   90       3.231288553672e-10       8.386034657213e-14      -2.254107222001e-12       0.000000000000e+00       1.294887527978e-11       1.842625048090e-12      -7.820603910888e-15 
   91       3.270599798220e-10       8.595281111490e-14      -2.339453751102e-12       0.000000000000e+00       1.259022232952e-11       1.802216426438e-12      -7.785249770623e-15 
   92       3.310209689722e-10       8.804309610778e-14      -2.425490853618e-12       0.000000000000e+00       1.224381417555e-11       1.762983429349e-12      -7.745744913106e-15 
   93       3.350107905651e-10       9.012928138022e-14      -2.512156800539e-12       0.000000000000e+00       1.190840193157e-11       1.724791747987e-12      -7.699477414997e-15 
   94       3.390295582410e-10       9.220951964450e-14      -2.599390331918e-12       0.000000000000e+00       1.158382943477e-11       1.687635119119e-12      -7.646411598457e-15 
   95       3.430775779756e-10       9.428196108858e-14      -2.687129334684e-12       0.000000000000e+00       1.127015648749e-11       1.651533803333e-12      -7.587234321568e-15 
   96       3.471550061266e-10       9.634472697430e-14      -2.775310385738e-12       0.000000000000e+00       1.096734622754e-11       1.616498411062e-12      -7.522700175982e-15 
   97       3.512618424059e-10       9.839591007149e-14      -2.863868768897e-12       0.000000000000e+00       1.067526142628e-11       1.582529514312e-12      -7.453633228998e-15 
   98       3.553979228527e-10       1.004335750923e-13      -2.952738491837e-12       0.000000000000e+00       1.039366078670e-11       1.549617258386e-12      -7.380928765635e-15 
   99       3.595629128058e-10       1.024557591252e-13      -3.041852303041e-12       0.000000000000e+00       1.012219524143e-11       1.517740973605e-12      -7.305555030713e-15 
  100       3.637562998765e-10       1.044604720695e-13      -3.131141708738e-12       0.000000000000e+00       9.860404250848e-12       1.486868787041e-12      -7.228554970927e-15 
  101       3.679773869211e-10       1.064456970694e-13      -3.220536989852e-12       0.000000000000e+00       9.607712101090e-12       1.456957234236e-12      -7.151047976924e-15 
  102       3.722252850133e-10       1.084093909482e-13      -3.309967218944e-12       0.000000000000e+00       9.363424202142e-12       1.427950870929e-12      -7.074231625380e-15 
  103       3.764989064172e-10       1.103494846426e-13      -3.399360277155e-12       0.000000000000e+00       9.126723385886e-12       1.399781884781e-12      -6.999383421079e-15 
  104       3.807971910358e-10       1.122639355115e-13      -3.488643564943e-12       0.000000000000e+00       8.896855015684e-12       1.372386154385e-12      -6.927596272451e-15 
  105       3.851198357306e-10       1.141508913763e-13      -3.577746207128e-12       0.000000000000e+00       8.673718766962e-12       1.345754733195e-12      -6.858940469964e-15 
  106       3.894666508801e-10       1.160085495527e-13      -3.666597178693e-12       0.000000000000e+00       8.457350258227e-12       1.319888628846e-12      -6.793191223959e-15 
  107       3.938373312937e-10       1.178351079469e-13      -3.755124661861e-12       0.000000000000e+00       8.247737770689e-12       1.294782771883e-12      -6.730083652535e-15 
