# dimensionless total lensed [l(l+1)/2pi] C_l's
# for l=2 to 2500, i.e. number of multipoles equal to 2499
#
# -> if you prefer output in CAMB/HealPix/LensPix units/order, set 'format' to 'camb' in input file
# -> if you don't want to see such a header, set 'headers' to 'no' in input file
# -> for CMB lensing (phi), these are C_l^phi-phi for the lensing potential.
#    Remember the conversion factors:
#    C_l^dd (deflection) = l(l+1) C_l^phi-phi
#    C_l^gg (shear/convergence) = 1/4 (l(l+1))^2 C_l^phi-phi
#
# 1:l     2:TT                     3:EE                     4:TE                     5:BB                     6:phiphi                 7:TPhi                   8:Ephi               
    2       1.370818366885e-10       4.143861759196e-15       3.532514394139e-13       2.245993101592e-19       8.207055543398e-09       4.442843856376e-10      -1.839262420304e-12 
    3       1.298563774100e-10       5.311711044109e-15       3.960526854903e-13       4.492920541649e-19       5.045034792890e-09       3.153469959678e-10      -1.393970477551e-12 
    4       1.229978507608e-10       4.597824055326e-15       3.701130539222e-13       7.490258350052e-19       3.510615585201e-09       2.386629435452e-10      -9.133827562742e-13 
    5       1.178656391051e-10       3.070314172364e-15       3.150533540213e-13       1.123920037062e-18       2.620421499335e-09       1.883773792318e-10      -5.087353656512e-13 
    6       1.143563810626e-10       1.717981520490e-15       2.535951775742e-13       1.574119548514e-18       2.046361647004e-09       1.531680244223e-10      -2.105043531072e-13 
    7       1.120761166546e-10       9.280591268423e-16       1.989969678953e-13       2.099792062775e-18       1.649980023920e-09       1.273277948883e-10      -2.013773381637e-14 
    8       1.107591068810e-10       5.979028156134e-16       1.570494087307e-13       2.701125027331e-18       1.362224164774e-09       1.077447569834e-10       7.716851587871e-14 
    9       1.101677178934e-10       4.798234701185e-16       1.290085889782e-13       3.378322330788e-18       1.145617568284e-09       9.258437099467e-11       1.046054474908e-13 
   10       1.100631197819e-10       4.099999725117e-16       1.135347032276e-13       4.131600825297e-18       9.781434136146e-10       8.060273530750e-11       8.793069472764e-14 
   11       1.104025249524e-10       3.464270321647e-16       1.079616240590e-13       4.961186784441e-18       8.251965434870e-10       7.125443867617e-11       5.121429913427e-14 
   12       1.110260527906e-10       3.039319324103e-16       1.092131956980e-13       5.867312396153e-18       7.207193389653e-10       6.298973096437e-11       1.191948377388e-14 
   13       1.118853977509e-10       2.932173185470e-16       1.145963598632e-13       6.850212386171e-18       6.349842421161e-10       5.629323039236e-11      -1.798471604443e-14 
   14       1.129501920005e-10       3.064691751439e-16       1.220985861412e-13       7.910120860323e-18       5.636810123621e-10       5.048970742029e-11      -3.427002486172e-14 
   15       1.141941272053e-10       3.322498154317e-16       1.303696238225e-13       9.047268443644e-18       5.036833591361e-10       4.559652252643e-11      -3.718131205913e-14 
   16       1.155371705822e-10       3.682866790170e-16       1.387965190767e-13       1.026187978157e-17       4.526890261508e-10       4.137048236116e-11      -3.059825761147e-14 
   17       1.170181471044e-10       4.199609599942e-16       1.472433610321e-13       1.155417145356e-17       4.089594096891e-10       3.767821857609e-11      -1.965576582459e-14 
   18       1.185727056331e-10       4.925443702956e-16       1.558420016207e-13       1.292435015351e-17       3.710172700008e-10       3.447282234835e-11      -9.202399195463e-15 
   19       1.202129578415e-10       5.864120158624e-16       1.647917686503e-13       1.437261241216e-17       3.382562937306e-10       3.170364021821e-11      -1.837672825575e-15 
   20       1.219339963034e-10       6.996807281258e-16       1.742717645307e-13       1.589914188890e-17       3.094110417662e-10       2.924270448907e-11       7.202003974288e-16 
   21       1.237333416121e-10       8.317370899419e-16       1.842711655698e-13       1.750411188571e-17       2.840262283715e-10       2.704134678819e-11      -9.636251541007e-16 
   22       1.255798081098e-10       9.820759167680e-16       1.946302566652e-13       1.918768237433e-17       2.614922501460e-10       2.504606271853e-11      -5.140265893277e-15 
   23       1.274825392794e-10       1.150809844627e-15       2.049769447237e-13       2.095000390205e-17       2.414978989415e-10       2.325706489278e-11      -1.005889684559e-14 
   24       1.294413464173e-10       1.338121692572e-15       2.148355148040e-13       2.279121456755e-17       2.235796313407e-10       2.166688951655e-11      -1.386032316146e-14 
   25       1.314531691471e-10       1.544411608095e-15       2.239426935117e-13       2.471144555294e-17       2.075256458670e-10       2.024570847233e-11      -1.575141495369e-14 
   26       1.334996920812e-10       1.770302370950e-15       2.321057334246e-13       2.671081748051e-17       1.930442895713e-10       1.894488420803e-11      -1.544316046189e-14 
   27       1.355815030179e-10       2.017499820849e-15       2.392320187298e-13       2.878944570318e-17       1.799610748030e-10       1.775595039026e-11      -1.354182228605e-14 
   28       1.376956749891e-10       2.288065250415e-15       2.452850604750e-13       3.094743781238e-17       1.680496927189e-10       1.667431218180e-11      -1.102122652661e-14 
   29       1.398505481859e-10       2.583471377269e-15       2.503072907191e-13       3.318490215821e-17       1.572488849851e-10       1.569656955584e-11      -8.510771424129e-15 
   30       1.420459317132e-10       2.905033324402e-15       2.543974148261e-13       3.550194077985e-17       1.474422386551e-10       1.480954643383e-11      -6.644116016880e-15 
   31       1.442711850372e-10       3.254005885993e-15       2.576608297433e-13       3.789864935754e-17       1.384291671397e-10       1.399177807172e-11      -6.009441369238e-15 
   32       1.465298891957e-10       3.631296857110e-15       2.600641831666e-13       4.037512779532e-17       1.301628200296e-10       1.323653696177e-11      -6.452554883753e-15 
   33       1.488217712819e-10       4.037632351993e-15       2.615261173094e-13       4.293147343600e-17       1.225844501713e-10       1.253580359284e-11      -7.500748670615e-15 
   34       1.511393826925e-10       4.473696989411e-15       2.619475779731e-13       4.556777973944e-17       1.155876494272e-10       1.187811873847e-11      -8.618411317505e-15 
   35       1.534835332299e-10       4.940399081526e-15       2.611905808496e-13       4.828414126937e-17       1.091363935989e-10       1.126456476052e-11      -9.510897627642e-15 
   36       1.558514914945e-10       5.438690700950e-15       2.590893499036e-13       5.108065058988e-17       1.031787129844e-10       1.069761382668e-11      -9.918039505653e-15 
   37       1.582365436317e-10       5.969469268722e-15       2.554901299339e-13       5.395739639981e-17       9.763682271921e-11       1.017687760176e-11      -9.624386820408e-15 
   38       1.606435945747e-10       6.533488069890e-15       2.503745190719e-13       5.691446123669e-17       9.249629013605e-11       9.700101178416e-12      -8.779509201268e-15 
   39       1.630775885677e-10       7.131409499068e-15       2.437773552174e-13       5.995192314866e-17       8.774071260587e-11       9.261964776445e-12      -7.687088956486e-15 
   40       1.655386511377e-10       7.763823010676e-15       2.357554066977e-13       6.306985638521e-17       8.332459869129e-11       8.853427553273e-12      -6.725375258415e-15 
   41       1.680240713975e-10       8.431281886705e-15       2.263646149979e-13       6.626832843183e-17       7.918919273328e-11       8.464541095125e-12      -6.248139680773e-15 
   42       1.705363063234e-10       9.134439217268e-15       2.155797139946e-13       6.954738981368e-17       7.532224206489e-11       8.094723291025e-12      -6.237177411439e-15 
   43       1.730766850359e-10       9.873948286955e-15       2.033506839924e-13       7.290708107032e-17       7.171341649958e-11       7.745316516372e-12      -6.544796941314e-15 
   44       1.756427648908e-10       1.065042312520e-14       1.896242620656e-13       7.634743534536e-17       6.833637524352e-11       7.416669897064e-12      -6.985643573909e-15 
   45       1.782304222197e-10       1.146443349851e-14       1.743484709365e-13       7.986847466726e-17       6.515815914579e-11       7.108340184041e-12      -7.377765067028e-15 
   46       1.808417195248e-10       1.231649245766e-14       1.574885919539e-13       8.347019782481e-17       6.217371836990e-11       6.819978236011e-12      -7.685928394021e-15 
   47       1.834787769740e-10       1.320706192342e-14       1.390154103018e-13       8.715258860769e-17       5.937953976423e-11       6.550554350611e-12      -7.917193534053e-15 
   48       1.861413116375e-10       1.413655354506e-14       1.189007266021e-13       9.091561871025e-17       5.676323388470e-11       6.298018920197e-12      -8.081411271019e-15 
   49       1.888264181205e-10       1.510532667001e-14       9.711730909101e-14       9.475924737366e-17       5.430287513842e-11       6.059229119367e-12      -8.191396775522e-15 
   50       1.915304946449e-10       1.611366194336e-14       7.363746769281e-14       9.868342114638e-17       5.197359685444e-11       5.830859344082e-12      -8.263425654551e-15 
   51       1.942561465743e-10       1.716167836857e-14       4.842843089589e-14       1.026880739189e-16       4.977101778591e-11       5.612593954521e-12      -8.318478126220e-15 
   52       1.970067775833e-10       1.824939022427e-14       2.145563131616e-14       1.067731262800e-16       4.769303386484e-11       5.404674441064e-12      -8.381632609288e-15 
   53       1.997844923911e-10       1.937672636496e-14      -7.316135881484e-15       1.109384850555e-16       4.573280815053e-11       5.206965039810e-12      -8.481957051057e-15 
   54       2.025899783571e-10       2.054352704382e-14      -3.792282565855e-14       1.151840429561e-16       4.387845238146e-11       5.018925714288e-12      -8.652697684299e-15 
   55       2.054231636609e-10       2.174960709683e-14      -7.039468207028e-14       1.195096867115e-16       4.211664845841e-11       4.839854232231e-12      -8.920696024428e-15 
   56       2.082856545696e-10       2.299497115453e-14      -1.047347174654e-13       1.239153246465e-16       4.044529595182e-11       4.669744714667e-12      -9.271128744301e-15 
   57       2.111786962448e-10       2.427964632839e-14      -1.409350844174e-13       1.284008653387e-16       3.886344871995e-11       4.508595044196e-12      -9.674339049939e-15 
   58       2.141023629750e-10       2.560361995487e-14      -1.789830407076e-13       1.329662097109e-16       3.736748889864e-11       4.356140282199e-12      -1.009561510149e-14 
   59       2.170554700274e-10       2.696683900378e-14      -2.188608058823e-13       1.376112510096e-16       3.595096195706e-11       4.211836134776e-12      -1.049495909123e-14 
   60       2.200354854995e-10       2.836920948655e-14      -2.605454178093e-13       1.423358747834e-16       3.460441175340e-11       4.074842418673e-12      -1.082685632151e-14 
   61       2.230397428693e-10       2.981051662725e-14      -3.040132432702e-13       1.471399742290e-16       3.331800336811e-11       3.944256219897e-12      -1.105081023811e-14 
   62       2.260695961091e-10       3.129016577518e-14      -3.492550173525e-13       1.520235003036e-16       3.209045271228e-11       3.819909930854e-12      -1.116623323147e-14 
   63       2.291270450553e-10       3.280738202271e-14      -3.962639406312e-13       1.569864228732e-16       3.092181769086e-11       3.701723816424e-12      -1.118501331658e-14 
   64       2.322134710603e-10       3.436128126666e-14      -4.450313271589e-13       1.620287167951e-16       2.981081231745e-11       3.589463686936e-12      -1.112154773574e-14 
   65       2.353295901142e-10       3.595086710251e-14      -4.955466086914e-13       1.671503623837e-16       2.875473022399e-11       3.482732286668e-12      -1.099285363214e-14 
   66       2.384754059666e-10       3.757502771855e-14      -5.477973389140e-13       1.723513458764e-16       2.774936817062e-11       3.380960682331e-12      -1.081867872350e-14 
   67       2.416501632490e-10       3.923253279009e-14      -6.017691976675e-13       1.776316598997e-16       2.678894955549e-11       3.283399651570e-12      -1.062161197561e-14 
   68       2.448529884329e-10       4.092215183427e-14      -6.574456483646e-13       1.829913115931e-16       2.586766558071e-11       3.189315393110e-12      -1.042268170982e-14 
   69       2.480850683075e-10       4.264304406509e-14      -7.148068201871e-13       1.884303478496e-16       2.498483235587e-11       3.098641955906e-12      -1.022686679795e-14 
   70       2.513478307330e-10       4.439444231684e-14      -7.738304059435e-13       1.939488360504e-16       2.414064615041e-11       3.011446146640e-12      -1.003483498391e-14 
   71       2.546422670996e-10       4.617553857344e-14      -8.344919842774e-13       1.995468575096e-16       2.333462370710e-11       2.927731579813e-12      -9.847191038029e-15 
   72       2.579689030403e-10       4.798548396907e-14      -8.967650150234e-13       2.052245081359e-16       2.256556712413e-11       2.847435291859e-12      -9.664472019797e-15 
   73       2.613277691451e-10       4.982338878876e-14      -9.606208345633e-13       2.109818990948e-16       2.183152873720e-11       2.770424355255e-12      -9.487142540518e-15 
   74       2.647183716745e-10       5.168832246898e-14      -1.026028651182e-12       2.168191574702e-16       2.112977600156e-11       2.696492492630e-12      -9.315590026030e-15 
   75       2.681396632728e-10       5.357931359822e-14      -1.092955540425e-12       2.227364269265e-16       2.045675637414e-11       2.625356690878e-12      -9.150119979406e-15 
   76       2.715905961231e-10       5.549529695323e-14      -1.161366495716e-12       2.287338607961e-16       1.980897832387e-11       2.556732893038e-12      -8.991094657957e-15 
   77       2.750719626013e-10       5.743494345583e-14      -1.231224601134e-12       2.348115984244e-16       1.918591746788e-11       2.490586493659e-12      -8.839388771334e-15 
   78       2.785848386264e-10       5.939679906495e-14      -1.302490881858e-12       2.409697856935e-16       1.858757904324e-11       2.426921583226e-12      -8.696008661535e-15 
   79       2.821300139337e-10       6.137933392218e-14      -1.375124248236e-12       2.472085827123e-16       1.801361272464e-11       2.365704186959e-12      -8.561954493206e-15 
   80       2.857079747326e-10       6.338094126637e-14      -1.449081492281e-12       2.535281643233e-16       1.746329629250e-11       2.306860500481e-12      -8.438218457165e-15 
   81       2.893188863629e-10       6.539993634807e-14      -1.524317284159e-12       2.599287206087e-16       1.693551930089e-11       2.250275125480e-12      -8.325782973936e-15 
   82       2.929625759526e-10       6.743455534413e-14      -1.600784168674e-12       2.664104573973e-16       1.642876674569e-11       2.195789305378e-12      -8.225618897266e-15 
   83       2.966385150742e-10       6.948295427217e-14      -1.678432561765e-12       2.729735967708e-16       1.594110273249e-11       2.143199160993e-12      -8.138683717661e-15 
   84       3.003461208975e-10       7.154327551511e-14      -1.757211430489e-12       2.796183743908e-16       1.547064048627e-11       2.092305703615e-12      -8.065522547994e-15 
   85       3.040857549973e-10       7.361386244382e-14      -1.837070470207e-12       2.863450298593e-16       1.501707768051e-11       2.043078265271e-12      -8.004999012729e-15 
   86       3.078578590993e-10       7.569307854963e-14      -1.917958283569e-12       2.931538156812e-16       1.458038687264e-11       1.995515052889e-12      -7.955349695055e-15 
   87       3.116626394932e-10       7.777924304785e-14      -1.999821736971e-12       3.000450007491e-16       1.416034375479e-11       1.949592898832e-12      -7.914554301055e-15 
   88       3.155000550431e-10       7.987063092857e-14      -2.082605968527e-12       3.070188707957e-16       1.375651899559e-11       1.905266366780e-12      -7.880327187301e-15 
   89       3.193698051970e-10       8.196547300748e-14      -2.166254396045e-12       3.140757288476e-16       1.336827008205e-11       1.862466857597e-12      -7.850108888447e-15 
   90       3.232713179973e-10       8.406195597674e-14      -2.250708725008e-12       3.212158956780e-16       1.299473316136e-11       1.821101715207e-12      -7.821057644831e-15 
   91       3.272037380899e-10       8.615822245575e-14      -2.335908956548e-12       3.284397102602e-16       1.263481488274e-11       1.781053332467e-12      -7.790040930064e-15 
   92       3.311659147348e-10       8.825237104197e-14      -2.421793395420e-12       3.357475302201e-16       1.228718423930e-11       1.742178257039e-12      -7.753626978629e-15 
   93       3.351567518858e-10       9.034248479899e-14      -2.508299388408e-12       3.431397403089e-16       1.195058809516e-11       1.704343335960e-12      -7.708864955111e-15 
   94       3.391763447032e-10       9.242672151136e-14      -2.595365649219e-12       3.506167782927e-16       1.162486977096e-11       1.667542309839e-12      -7.655778086987e-15 
   95       3.432249925995e-10       9.450323716122e-14      -2.682930299627e-12       3.581791138121e-16       1.131008928292e-11       1.631795182882e-12      -7.595231579300e-15 
   96       3.473028454738e-10       9.657015913582e-14      -2.770930187965e-12       3.658272412663e-16       1.100620964229e-11       1.597112366130e-12      -7.528179704968e-15 
   97       3.514098966917e-10       9.862558666871e-14      -2.859300907134e-12       3.735616803760e-16       1.071309314041e-11       1.563494291762e-12      -7.455668157933e-15 
   98       3.555459760656e-10       1.006675912809e-13      -2.947976812600e-12       3.813829767467e-16       1.043049763367e-11       1.530931027387e-12      -7.378836406311e-15 
   99       3.597107428339e-10       1.026942172221e-13      -3.036891040402e-12       3.892917024320e-16       1.015807282856e-11       1.499401890345e-12      -7.298920045542e-15 
  100       3.639036786420e-10       1.047034819119e-13      -3.125975525150e-12       3.972884564965e-16       9.895356566694e-12       1.468875062004e-12      -7.217253151542e-15 
  101       3.681240805216e-10       1.066933763806e-13      -3.215161018034e-12       4.053738655796e-16       9.641771109776e-12       1.439307202056e-12      -7.135270633848e-15 
  102       3.723710538707e-10       1.086618657110e-13      -3.304377104823e-12       4.135485844577e-16       9.396619424655e-12       1.410643062817e-12      -7.054510588775e-15 
  103       3.766435054340e-10       1.106068894792e-13      -3.393552223869e-12       4.218132966086e-16       9.159081468325e-12       1.382815103519e-12      -6.976616652557e-15 
  104       3.809403713455e-10       1.125264136876e-13      -3.482614269831e-12       4.301686941939e-16       8.928399950599e-12       1.355759343406e-12      -6.902989851975e-15 
  105       3.852613514608e-10       1.144185936042e-13      -3.571492458946e-12       4.386154137181e-16       8.704474202531e-12       1.329466190684e-12      -6.833685526436e-15 
  106       3.896062615968e-10       1.162816338457e-13      -3.660115750468e-12       4.471540926877e-16       8.487339978628e-12       1.303935792721e-12      -6.768371089402e-15 
  107       3.939748029440e-10       1.181137398443e-13      -3.748412307586e-12       4.557853897479e-16       8.276985529868e-12       1.279162205650e-12      -6.706661744115e-15 
