# dimensionless total lensed [l(l+1)/2pi] C_l's
# for l=2 to 2500, i.e. number of multipoles equal to 2499
#
# -> if you prefer output in CAMB/HealPix/LensPix units/order, set 'format' to 'camb' in input file
# -> if you don't want to see such a header, set 'headers' to 'no' in input file
# -> for CMB lensing (phi), these are C_l^phi-phi for the lensing potential.
#    Remember the conversion factors:
#    C_l^dd (deflection) = l(l+1) C_l^phi-phi
#    C_l^gg (shear/convergence) = 1/4 (l(l+1))^2 C_l^phi-phi
#
# 1:l     2:TT                     3:EE                     4:TE                     5:BB                     6:phiphi                 7:TPhi                   8:Ephi               
    2       1.369699625252e-10       4.143749621031e-15       3.528291118297e-13       2.244527108016e-19       8.203164098533e-09       4.444266743051e-10      -1.839198587350e-12 
    3       1.297472499987e-10       5.311605896052e-15       3.955995361619e-13       4.489984501280e-19       5.044249633188e-09       3.154485360144e-10      -1.393946962717e-12 
    4       1.228961663477e-10       4.597863708428e-15       3.697026022182e-13       7.485356181774e-19       3.510322800483e-09       2.387328525822e-10      -9.133709126389e-13 
    5       1.177729669221e-10       3.070448102162e-15       3.147137801033e-13       1.123183124381e-18       2.620226272961e-09       1.884298746057e-10      -5.087401250691e-13 
    6       1.142727694392e-10       1.718123083351e-15       2.533319974080e-13       1.573085316764e-18       2.046202819104e-09       1.532089303011e-10      -2.105130080631e-13 
    7       1.120010909238e-10       9.281434462951e-16       1.988046143633e-13       2.098409315069e-18       1.649786879477e-09       1.273597517499e-10      -2.014205565382e-14 
    8       1.106923671585e-10       5.979137572929e-16       1.569164761243e-13       2.699341993874e-18       1.362020212550e-09       1.077703245856e-10       7.717307044793e-14 
    9       1.101091941869e-10       4.797749420287e-16       1.289217491270e-13       3.376086704756e-18       1.145435905547e-09       9.260612269617e-11       1.046205842669e-13 
   10       1.100120200414e-10       4.099087001867e-16       1.134807415660e-13       4.128859832837e-18       9.779507856012e-10       8.062236218971e-11       8.795582710482e-14 
   11       1.103585054090e-10       3.463013549241e-16       1.079284742598e-13       4.957887286033e-18       8.250637381521e-10       7.127165880757e-11       5.124815751789e-14 
   12       1.109885095484e-10       3.037765958632e-16       1.091902920076e-13       5.863401014864e-18       7.205995655156e-10       6.300464583177e-11       1.195712462778e-14 
   13       1.118536459934e-10       2.930426079722e-16       1.145753386852e-13       6.845635656841e-18       6.348755340941e-10       5.630642579676e-11      -1.794407264111e-14 
   14       1.129241654428e-10       3.062941899728e-16       1.220730567159e-13       7.904825392485e-18       5.635818451973e-10       5.050258034375e-11      -3.422569724187e-14 
   15       1.141732536100e-10       3.320974002822e-16       1.303345680637e-13       9.041201090068e-18       5.035924601363e-10       4.560856716235e-11      -3.713426041159e-14 
   16       1.155208266980e-10       3.681739102359e-16       1.387490855092e-13       1.025498780376e-17       4.526053594775e-10       4.138164590496e-11      -3.054883205904e-14 
   17       1.170059034182e-10       4.198919110134e-16       1.471829157507e-13       1.154640267547e-17       4.088821057588e-10       3.768857715630e-11      -1.960468528104e-14 
   18       1.185643036872e-10       4.925085991144e-16       1.557692541837e-13       1.291565309946e-17       3.709456459924e-10       3.448278939708e-11      -9.150609648684e-15 
   19       1.202081818705e-10       5.863890292068e-16       1.647084180363e-13       1.436293639356e-17       3.381896745900e-10       3.171341831884e-11      -1.786164089953e-15 
   20       1.219326558800e-10       6.996431562263e-16       1.741803781083e-13       1.588843710596e-17       3.093489397980e-10       2.925202997326e-11       7.704633704798e-16 
   21       1.237350935507e-10       8.316631113158e-16       1.841743516101e-13       1.749232942406e-17       2.839681984021e-10       2.705000145286e-11      -9.152745244321e-16 
   22       1.255841618790e-10       9.819558743196e-16       1.945302275745e-13       1.917477422260e-17       2.614379061675e-10       2.505406989858e-11      -5.094029840396e-15 
   23       1.274891833240e-10       1.150645673442e-15       2.048755007499e-13       2.093592286027e-17       2.414468880527e-10       2.326463405252e-11      -1.001452368055e-14 
   24       1.294502319520e-10       1.337926925047e-15       2.147338759738e-13       2.277591417624e-17       2.235316643267e-10       2.167433211050e-11      -1.381713158049e-14 
   25       1.314640855978e-10       1.544203415030e-15       2.238413519981e-13       2.469487991387e-17       2.074804558764e-10       2.025303550300e-11      -1.570864514641e-14 
   26       1.335121989562e-10       1.770097485715e-15       2.320044015868e-13       2.669294110028e-17       1.930016454676e-10       1.895174235166e-11      -1.540023355216e-14 
   27       1.355953803725e-10       2.017308586352e-15       2.391301951747e-13       2.877021325391e-17       1.799207674190e-10       1.776223327963e-11      -1.349886543911e-14 
   28       1.377110411177e-10       2.287889161433e-15       2.451822155776e-13       3.092680390981e-17       1.680115455527e-10       1.668031464582e-11      -1.097917974177e-14 
   29       1.398674895276e-10       2.583306911414e-15       2.502028582054e-13       3.316282109603e-17       1.572127270952e-10       1.570254783142e-11      -8.470528317682e-15 
   30       1.420643632954e-10       2.904872407812e-15       2.542908112232e-13       3.547836626448e-17       1.474079145576e-10       1.481554205970e-11      -6.606185607845e-15 
   31       1.442908590595e-10       3.253836539878e-15       2.575515490232e-13       3.787353425880e-17       1.383965516165e-10       1.399761942646e-11      -5.973945136156e-15 
   32       1.465505916802e-10       3.631109469722e-15       2.599521108002e-13       4.034842397769e-17       1.301317929205e-10       1.324208667688e-11      -6.419653131587e-15 
   33       1.488434036558e-10       4.037422571640e-15       2.614117232943e-13       4.290313150414e-17       1.225548992649e-10       1.254105360313e-11      -7.470800457419e-15 
   34       1.511619541177e-10       4.473466111052e-15       2.618318546867e-13       4.553774881337e-17       1.155594791434e-10       1.188318535089e-11      -8.591926321340e-15 
   35       1.535070019796e-10       4.940150355287e-15       2.610742533789e-13       4.825236900550e-17       1.091095125422e-10       1.126954830686e-11      -9.488136188326e-15 
   36       1.558757037169e-10       5.438428347276e-15       2.589725516169e-13       5.104708301715e-17       1.031530370371e-10       1.070254570923e-11      -9.898835706855e-15 
   37       1.582612465050e-10       5.969197981135e-15       2.553724323993e-13       5.392197782280e-17       9.761227998936e-11       1.018171938030e-11      -9.608157846723e-15 
   38       1.606685735671e-10       6.533210494108e-15       2.502555540125e-13       5.687713463459e-17       9.247281007711e-11       9.704804497051e-12      -8.765606103927e-15 
   39       1.631027224131e-10       7.131125017502e-15       2.436570397405e-13       5.991263023397e-17       8.771822682994e-11       9.266489938247e-12      -7.674918245026e-15 
   40       1.655639355659e-10       7.763527009069e-15       2.356340163069e-13       6.302853752898e-17       8.330304667045e-11       8.857746013564e-12      -6.714432416204e-15 
   41       1.680496095269e-10       8.430966011629e-15       2.262427613340e-13       6.622492276794e-17       7.916852441689e-11       8.468636907128e-12      -6.238026611637e-15 
   42       1.705621822960e-10       9.134095105354e-15       2.154579877120e-13       6.950183595162e-17       7.530240881643e-11       8.098590607496e-12      -6.227559123222e-15 
   43       1.731029189881e-10       9.873568874669e-15       2.032295317171e-13       7.285931739672e-17       7.169437076662e-11       7.748960025083e-12      -6.535403598706e-15 
   44       1.756692986727e-10       1.065000304361e-14       1.895039521434e-13       7.629740017481e-17       6.831807374784e-11       7.420106433740e-12      -6.976290817379e-15 
   45       1.782571258035e-10       1.146396913879e-14       1.742290932707e-13       7.981610648944e-17       6.514056427862e-11       7.111597788838e-12      -7.368353292974e-15 
   46       1.808684688834e-10       1.231598087222e-14       1.573701769897e-13       8.341543584669e-17       6.215679294759e-11       6.823086443951e-12      -7.676368313134e-15 
   47       1.835054803932e-10       1.320650058601e-14       1.388979610755e-13       8.709537310930e-17       5.936324688265e-11       6.553540761096e-12      -7.907385652869e-15 
   48       1.861679167053e-10       1.413594043966e-14       1.187842178611e-13       9.085589134008e-17       5.674753879631e-11       6.300908102859e-12      -8.071245845763e-15 
   49       1.888529190965e-10       1.510466038444e-14       9.700168648885e-14       9.469695146101e-17       5.428774727194e-11       6.062041446776e-12      -8.180753796042e-15 
   50       1.915569278860e-10       1.611294152280e-14       7.352265421762e-14       9.861850190941e-17       5.195901045813e-11       5.833610361033e-12      -8.252183716856e-15 
   51       1.942825454175e-10       1.716090236124e-14       4.831435714171e-14       1.026204782876e-16       4.975694766966e-11       5.615295698431e-12      -8.306552745403e-15 
   52       1.970331574248e-10       1.824855632378e-14       2.134224851241e-14       1.067028030288e-16       4.767945495974e-11       5.407335214446e-12      -8.368993135330e-15 
   53       1.998108469353e-10       1.937583127166e-14      -7.428849031923e-15       1.108653850588e-16       4.571969654085e-11       5.209588575944e-12      -8.468635860898e-15 
   54       2.026162756662e-10       2.054256631936e-14      -3.803485572965e-14       1.151081194549e-16       4.386578640788e-11       5.021510298446e-12      -8.638799820872e-15 
   55       2.054493487606e-10       2.174857531057e-14      -7.050597636365e-14       1.194308952353e-16       4.210440904822e-11       4.842393215553e-12      -8.906394333907e-15 
   56       2.083116740855e-10       2.299386300619e-14      -1.048451892909e-13       1.238336217765e-16       4.043346424221e-11       4.672231712945e-12      -9.256610265384e-15 
   57       2.112045061320e-10       2.427845702508e-14      -1.410446102650e-13       1.283162083611e-16       3.885200584045e-11       4.511025537738e-12      -9.659788823935e-15 
   58       2.141279300355e-10       2.560234531537e-14      -1.790914542370e-13       1.328785565985e-16       3.735641657638e-11       4.358511891869e-12      -1.008121373763e-14 
   59       2.170807734912e-10       2.696547556766e-14      -2.189678916218e-13       1.375205604004e-16       3.594024316033e-11       4.214148909576e-12      -1.048088019648e-14 
   60       2.200605186702e-10       2.836775462814e-14      -2.606509045652e-13       1.422421059567e-16       3.459403137355e-11       4.077099134884e-12      -1.081326379498e-14 
   61       2.230645113054e-10       2.980896844651e-14      -3.041168123477e-13       1.470430867868e-16       3.330794832163e-11       3.946462062140e-12      -1.103785518710e-14 
   62       2.260941043613e-10       3.128852224983e-14      -3.493563597575e-13       1.519234528972e-16       3.208071006488e-11       3.822070130672e-12      -1.115404995970e-14 
   63       2.291512923812e-10       3.280564074112e-14      -3.963627758207e-13       1.568831726649e-16       3.091237438158e-11       3.703842893298e-12      -1.117371579068e-14 
   64       2.322374503937e-10       3.435943937168e-14      -4.451274078430e-13       1.619222191805e-16       2.980165547997e-11       3.591545270207e-12      -1.111122613589e-14 
   65       2.353532869862e-10       3.594892123284e-14      -4.956397258255e-13       1.670405707023e-16       2.874584752668e-11       3.484778929029e-12      -1.098357075952e-14 
   66       2.384987973793e-10       3.757297394777e-14      -5.478873268784e-13       1.722382111102e-16       2.774074817530e-11       3.382973664892e-12      -1.081046626457e-14 
   67       2.416732165009e-10       3.923036656325e-14      -6.018559396368e-13       1.775151303601e-16       2.678058209486e-11       3.285378780498e-12      -1.061446662327e-14 
   68       2.448756626888e-10       4.091986800934e-14      -6.575290725961e-13       1.828713329349e-16       2.585954177144e-11       3.191259156024e-12      -1.041656711913e-14 
   69       2.481073251525e-10       4.264063729889e-14      -7.148868665076e-13       1.883068641729e-16       2.497694339081e-11       3.100548861056e-12      -1.022173473865e-14 
   70       2.513696374855e-10       4.439190717223e-14      -7.739070163110e-13       1.938217901145e-16       2.413298309674e-11       3.013315104929e-12      -1.003063094660e-14 
   71       2.546635975157e-10       4.617286952590e-14      -8.345651020299e-13       1.994161906237e-16       2.332717767450e-11       2.929561940804e-12      -9.843854216308e-15 
   72       2.579897380432e-10       4.798267541354e-14      -8.968345840804e-13       2.050901600467e-16       2.255832944177e-11       2.849226880768e-12      -9.661935302057e-15 
   73       2.613480975767e-10       4.982043504687e-14      -9.606867985783e-13       2.108438078706e-16       2.182449113971e-11       2.772177510933e-12      -9.485332511512e-15 
   74       2.647381910712e-10       5.168521779661e-14      -1.026090952648e-12       2.166772593818e-16       2.112293082389e-11       2.698208106535e-12      -9.314426978131e-15 
   75       2.681589806654e-10       5.357605219339e-14      -1.093014119728e-12       2.225906563249e-16       2.045009675529e-11       2.627036247038e-12      -9.149517933586e-15 
   76       2.716094269784e-10       5.549187297102e-14      -1.161421287501e-12       2.285841505643e-16       1.980249819742e-11       2.558378417420e-12      -8.990962699156e-15 
   77       2.750903237510e-10       5.743135104524e-14      -1.231275522126e-12       2.346578822812e-16       1.917961084800e-11       2.492200210538e-12      -8.839636582238e-15 
   78       2.786027461502e-10       5.939303238837e-14      -1.302537825569e-12       2.408119989784e-16       1.858143990234e-11       2.428505812671e-12      -8.696548644756e-15 
   79       2.821474828115e-10       6.137538716918e-14      -1.375167082087e-12       2.470466626319e-16       1.800763508606e-11       2.367261328282e-12      -8.562702692589e-15 
   80       2.857250184812e-10       6.337680866778e-14      -1.449120054611e-12       2.533620502055e-16       1.745747432750e-11       2.308393014796e-12      -8.439095515566e-15 
   81       2.893355166582e-10       6.539561219070e-14      -1.524351381138e-12       2.597583541657e-16       1.692984743012e-11       2.251785517374e-12      -8.326715127464e-15 
   82       2.929788022364e-10       6.743003398585e-14      -1.600813571116e-12       2.662357829974e-16       1.642323974486e-11       2.197280103689e-12      -8.226539006008e-15 
   83       2.966543441464e-10       6.947823015754e-14      -1.678457001829e-12       2.727945617187e-16       1.593571584254e-11       2.144672898698e-12      -8.139532332863e-15 
   84       3.003615567911e-10       7.153834316967e-14      -1.757230609723e-12       2.794349288325e-16       1.546538940238e-11       2.093764828925e-12      -8.066248812440e-15 
   85       3.041007997887e-10       7.360871639950e-14      -1.837084103955e-12       2.861571254719e-16       1.501195814553e-11       2.044524835164e-12      -8.005560949026e-15 
   86       3.078725129115e-10       7.568771332840e-14      -1.917966114888e-12       2.929614053918e-16       1.457539460827e-11       1.996950606333e-12      -7.955715070934e-15 
   87       3.116769002054e-10       7.777365316631e-14      -1.999823539725e-12       2.998480388203e-16       1.415547451443e-11       1.951018392721e-12      -7.914701721494e-15 
   88       3.155139179899e-10       7.986481090266e-14      -2.082601550576e-12       3.068173129146e-16       1.375176861956e-11       1.906682109825e-12      -7.880247219703e-15 
   89       3.193832628580e-10       8.195941735727e-14      -2.166243602526e-12       3.138695322159e-16       1.336363455495e-11       1.863872442196e-12      -7.849805220876e-15 
   90       3.232843596759e-10       8.405565923132e-14      -2.250691441704e-12       3.210050191048e-16       1.299020867173e-11       1.822495947280e-12      -7.820548277296e-15 
   91       3.272163495835e-10       8.615167915827e-14      -2.335885113341e-12       3.282241142563e-16       1.263039788496e-11       1.782434159262e-12      -7.789359398858e-15 
   92       3.311780779937e-10       8.824557575479e-14      -2.421762969847e-12       3.355271770954e-16       1.228287151772e-11       1.743542692909e-12      -7.752823613727e-15 
   93       3.351684459603e-10       9.033543210723e-14      -2.508262398052e-12       3.429145936075e-16       1.194637674509e-11       1.705687624041e-12      -7.708003978711e-15 
   94       3.391875507949e-10       9.241940602118e-14      -2.595322108557e-12       3.503868001261e-16       1.162075691119e-11       1.668862836461e-12      -7.654921448213e-15 
   95       3.432356956103e-10       9.449565350280e-14      -2.682880207219e-12       3.579442639815e-16       1.130607200027e-11       1.633088749229e-12      -7.594434109696e-15 
   96       3.473130343195e-10       9.656230196803e-14      -2.770873524347e-12       3.655874770122e-16       1.100228501906e-11       1.598376233276e-12      -7.527488263986e-15 
   97       3.514195646242e-10       9.861745068390e-14      -2.859237632642e-12       3.733169561218e-16       1.070925828281e-11       1.564726226933e-12      -7.455120753932e-15 
   98       3.555551210023e-10       1.006591712098e-13      -2.947906865131e-12       3.811332438345e-16       1.042674970144e-11       1.532129351466e-12      -7.378461293071e-15 
   99       3.597193676954e-10       1.026855078387e-13      -3.036814333111e-12       3.890369088520e-16       1.015440906560e-11       1.500565526610e-12      -7.298734794288e-15 
  100       3.639117916974e-10       1.046944780384e-13      -3.125891944083e-12       3.970285466091e-16       9.891774332723e-12       1.470003586099e-12      -7.217263698480e-15 
  101       3.681316957417e-10       1.066840728929e-13      -3.215070419693e-12       4.051087798304e-16       9.638267913170e-12       1.440400893199e-12      -7.135470303217e-15 
  102       3.723781912890e-10       1.086522575436e-13      -3.304279313672e-12       4.132782590862e-16       9.393192956275e-12       1.411702956243e-12      -7.054879091404e-15 
  103       3.766501915155e-10       1.105969716305e-13      -3.393447029769e-12       4.215376633488e-16       9.155729636446e-12       1.383843044160e-12      -6.977119059943e-15 
  104       3.809466374431e-10       1.125161812476e-13      -3.482501429967e-12       4.298876809544e-16       8.925120864000e-12       1.356757878144e-12      -6.903578883864e-15 
  105       3.852672262230e-10       1.144080418509e-13      -3.571371714035e-12       4.383289483620e-16       8.701265987773e-12       1.330437948828e-12      -6.834314341452e-15 
  106       3.896117686176e-10       1.162707582819e-13      -3.659986828501e-12       4.468621041199e-16       8.484200742637e-12       1.304883311109e-12      -6.768996952396e-15 
  107       3.939799602472e-10       1.181025362142e-13      -3.748274923181e-12       4.554878080583e-16       8.273913373919e-12       1.280087909694e-12      -6.707246494249e-15 
