# dimensionless total [l(l+1)/2pi] C_l's
# for l=2 to 3000, i.e. number of multipoles equal to 2999
#
# -> if you prefer output in CAMB/HealPix/LensPix units/order, set 'format' to 'camb' in input file
# -> if you don't want to see such a header, set 'headers' to 'no' in input file
# -> for CMB lensing (phi), these are C_l^phi-phi for the lensing potential.
#    Remember the conversion factors:
#    C_l^dd (deflection) = l(l+1) C_l^phi-phi
#    C_l^gg (shear/convergence) = 1/4 (l(l+1))^2 C_l^phi-phi
#
# 1:l     2:TT                     3:EE                     4:TE                     5:BB                     6:phiphi                 7:TPhi                   8:Ephi               
    2       1.374838795662e-10       4.142493603846e-15       3.538570497037e-13       0.000000000000e+00       8.172947811136e-09       4.434431109090e-10      -1.837614132323e-12 
    3       1.302553988514e-10       5.310216272539e-15       3.965968713692e-13       0.000000000000e+00       5.019164045974e-09       3.149635035679e-10      -1.392227314982e-12 
    4       1.233761827793e-10       4.596804532380e-15       3.706363044197e-13       0.000000000000e+00       3.491157275519e-09       2.386004377643e-10      -9.117029183630e-13 
    5       1.182159082444e-10       3.069743367858e-15       3.156548928816e-13       0.000000000000e+00       2.605384432390e-09       1.885252038139e-10      -5.071096878261e-13 
    6       1.146755645458e-10       1.717560122464e-15       2.543295152321e-13       0.000000000000e+00       2.034364788955e-09       1.534590155273e-10      -2.088899653966e-13 
    7       1.123633882478e-10       9.276269387364e-16       1.998455961314e-13       0.000000000000e+00       1.640250137304e-09       1.277193933204e-10      -1.847822695071e-14 
    8       1.110147827321e-10       5.972941992680e-16       1.579234979634e-13       0.000000000000e+00       1.354242168442e-09       1.082037737343e-10       7.891248015883e-14 
    9       1.103927306015e-10       4.786261157411e-16       1.297865768765e-13       0.000000000000e+00       1.138897779062e-09       9.308338437283e-11       1.064428366208e-13 
   10       1.102616243579e-10       4.075487003056e-16       1.141071733874e-13       0.000000000000e+00       9.723859967445e-10       8.112289476197e-11       8.983709626566e-14 
   11       1.105758587868e-10       3.420938679608e-16       1.082702088901e-13       0.000000000000e+00       8.202631622694e-10       7.178203834488e-11       5.313653669449e-14 
   12       1.111768576654e-10       2.974514188933e-16       1.092684963405e-13       0.000000000000e+00       7.164242524842e-10       6.352439616782e-11       1.380181688560e-14 
   13       1.120166705352e-10       2.847847610988e-16       1.144645752363e-13       0.000000000000e+00       6.312186039451e-10       5.682778361095e-11      -1.620007944258e-14 
   14       1.130613898039e-10       2.965728527336e-16       1.218766691848e-13       0.000000000000e+00       5.603590033487e-10       5.101335171553e-11      -3.262843002672e-14 
   15       1.142875400123e-10       3.213912356511e-16       1.301598363936e-13       0.000000000000e+00       5.007367359649e-10       4.611026263534e-11      -3.569439711187e-14 
   16       1.156153337695e-10       3.567654643950e-16       1.386763730880e-13       0.000000000000e+00       4.500626683703e-10       4.187365014435e-11      -2.926026385111e-14 
   17       1.170820966626e-10       4.078032389176e-16       1.472469704916e-13       0.000000000000e+00       4.066082647071e-10       3.816971928972e-11      -1.844523699979e-14 
   18       1.186233038431e-10       4.795372205825e-16       1.559620830697e-13       0.000000000000e+00       3.689050118727e-10       3.494957654408e-11      -8.091198768012e-15 
   19       1.202509643509e-10       5.722359858319e-16       1.649946547774e-13       0.000000000000e+00       3.363502855977e-10       3.216353058994e-11      -8.004690517053e-16 
   20       1.219598843608e-10       6.839688680985e-16       1.745037252935e-13       0.000000000000e+00       3.076862696606e-10       2.968581683056e-11       1.699943501038e-15 
   21       1.237481956134e-10       8.141814690573e-16       1.844836663032e-13       0.000000000000e+00       2.824604992327e-10       2.746877797295e-11      -3.162357770629e-17 
   22       1.255853495779e-10       9.624900067278e-16       1.947932118431e-13       0.000000000000e+00       2.600672076409e-10       2.545903731316e-11      -4.254527044590e-15 
   23       1.274796440620e-10       1.129128137524e-15       2.050805573042e-13       0.000000000000e+00       2.401971737682e-10       2.365539075357e-11      -9.224595355170e-15 
   24       1.294297157426e-10       1.314399324072e-15       2.148925295561e-13       0.000000000000e+00       2.223897776373e-10       2.204875730587e-11      -1.308828756211e-14 
   25       1.314334161566e-10       1.518726554593e-15       2.239776766290e-13       0.000000000000e+00       2.064345977424e-10       2.061138915093e-11      -1.504922394745e-14 
   26       1.334736557539e-10       1.742711424357e-15       2.321494622594e-13       0.000000000000e+00       1.920418517843e-10       1.929733475921e-11      -1.481145353293e-14 
   27       1.355497765093e-10       1.988001453936e-15       2.393079772426e-13       0.000000000000e+00       1.790381890679e-10       1.809652721167e-11      -1.297383390823e-14 
   28       1.376569873723e-10       2.256584212641e-15       2.454039781250e-13       0.000000000000e+00       1.671987490671e-10       1.700160805632e-11      -1.050354730893e-14 
   29       1.398038690447e-10       2.549896390648e-15       2.504714258876e-13       0.000000000000e+00       1.564627084725e-10       1.600954621207e-11      -8.030871442744e-15 
   30       1.419912936277e-10       2.869224432308e-15       2.546002824922e-13       0.000000000000e+00       1.467144226159e-10       1.510867908237e-11      -6.193887843002e-15 
   31       1.442096440538e-10       3.215799728489e-15       2.578875350703e-13       0.000000000000e+00       1.377545829419e-10       1.427893425983e-11      -5.585993657520e-15 
   32       1.464623006596e-10       3.590549371977e-15       2.603007287911e-13       0.000000000000e+00       1.295366704609e-10       1.351328464200e-11      -6.054953318999e-15 
   33       1.487482930851e-10       3.994239148443e-15       2.617632146834e-13       0.000000000000e+00       1.220023339042e-10       1.280266765332e-11      -7.129408421678e-15 
   34       1.510595274144e-10       4.427596061744e-15       2.621817871061e-13       0.000000000000e+00       1.150458458423e-10       1.213456965460e-11      -8.275066559876e-15 
   35       1.533971195882e-10       4.891542659385e-15       2.614237666673e-13       0.000000000000e+00       1.086314357937e-10       1.151024770015e-11      -9.196798173381e-15 
   36       1.557590165636e-10       5.387037548926e-15       2.593293910004e-13       0.000000000000e+00       1.027074798133e-10       1.093276440168e-11      -9.633304359752e-15 
   37       1.581391161838e-10       5.914981917986e-15       2.557501265718e-13       0.000000000000e+00       9.719669010198e-11       1.040228443233e-11      -9.367877505003e-15 
   38       1.605421419355e-10       6.476119066765e-15       2.506650525357e-13       0.000000000000e+00       9.208474693665e-11       9.916617606787e-12      -8.548919424713e-15 
   39       1.629725463556e-10       7.071094715693e-15       2.441033464205e-13       0.000000000000e+00       8.735536743910e-11       9.470318340452e-12      -7.478878182335e-15 
   40       1.654298368261e-10       7.700477555406e-15       2.361147183905e-13       0.000000000000e+00       8.296334858141e-11       9.054142097940e-12      -6.534638275239e-15 
   41       1.679107332444e-10       8.364801878101e-15       2.267485042229e-13       0.000000000000e+00       7.885029895866e-11       8.657917136651e-12      -6.068989248489e-15 
   42       1.704177869965e-10       9.064724079803e-15       2.159797776478e-13       0.000000000000e+00       7.500405647288e-11       8.281031094176e-12      -6.064877814718e-15 
   43       1.729526566914e-10       9.800908760711e-15       2.037612723944e-13       0.000000000000e+00       7.141436789843e-11       7.924835096722e-12      -6.376709053538e-15 
   44       1.755133021201e-10       1.057398387847e-14       1.900431760377e-13       0.000000000000e+00       6.805506019520e-11       7.589665615383e-12      -6.821732069465e-15 
   45       1.780959718367e-10       1.138453280339e-14       1.747768879164e-13       0.000000000000e+00       6.489337851819e-11       7.275055676893e-12      -7.220430964060e-15 
   46       1.807027138869e-10       1.223307163701e-14       1.579283033817e-13       0.000000000000e+00       6.192431514942e-11       6.980660424984e-12      -7.537503984284e-15 
   47       1.833355045712e-10       1.312006223594e-14       1.394680168177e-13       0.000000000000e+00       5.914438823356e-11       6.705451890485e-12      -7.779128824692e-15 
   48       1.859938841125e-10       1.404591587860e-14       1.193675733740e-13       0.000000000000e+00       5.654128841673e-11       6.447367335963e-12      -7.954096057917e-15 
   49       1.886747354314e-10       1.501099121395e-14       9.759941713271e-14       0.000000000000e+00       5.409322253722e-11       6.203234784826e-12      -8.073973088014e-15 
   50       1.913742667086e-10       1.601556861939e-14       7.413549578367e-14       0.000000000000e+00       5.177547184211e-11       5.969695047673e-12      -8.153924510759e-15 
   51       1.940951067318e-10       1.705976982819e-14       4.894274839564e-14       0.000000000000e+00       4.958368790425e-11       5.746435622300e-12      -8.215055338122e-15 
   52       1.968407531001e-10       1.814361293998e-14       2.198630325569e-14       0.000000000000e+00       4.751578564774e-11       5.533705871774e-12      -8.282987218989e-15 
   53       1.996134220379e-10       1.926703101824e-14      -6.769398012013e-15       0.000000000000e+00       4.556497220653e-11       5.331370325338e-12      -8.387447843348e-15 
   54       2.024139308779e-10       2.042986892881e-14      -3.736071550195e-14       0.000000000000e+00       4.371943012220e-11       5.138881101500e-12      -8.562465785371e-15 
   55       2.052423254434e-10       2.163194603451e-14      -6.981828315286e-14       0.000000000000e+00       4.196591927571e-11       4.955524810798e-12      -8.835592619554e-15 
   56       2.081002139285e-10       2.287326976018e-14      -1.041452625241e-13       0.000000000000e+00       4.030235628222e-11       4.781298266565e-12      -9.191987516963e-15 
   57       2.109888069639e-10       2.415386954417e-14      -1.403338883198e-13       0.000000000000e+00       3.872780518408e-11       4.616202016386e-12      -9.601751774617e-15 
   58       2.139081369453e-10       2.547373504783e-14      -1.783714973774e-13       0.000000000000e+00       3.723867195759e-11       4.459968406973e-12      -1.002989223561e-14 
   59       2.168569695389e-10       2.683281555982e-14      -2.182403849086e-13       0.000000000000e+00       3.582854038875e-11       4.312044701267e-12      -1.043608862332e-14 
   60       2.198327151865e-10       2.823101940046e-14      -2.599176607392e-13       0.000000000000e+00       3.448800794900e-11       4.171576195530e-12      -1.077446087571e-14 
   61       2.228326561569e-10       2.966813413835e-14      -3.033797514817e-13       0.000000000000e+00       3.320729492432e-11       4.037644283238e-12      -1.100418395269e-14 
   62       2.258581497529e-10       3.114356766102e-14      -3.486174131777e-13       0.000000000000e+00       3.198512746160e-11       3.910081283830e-12      -1.112464282896e-14 
   63       2.289112158175e-10       3.265654766331e-14      -3.956238486356e-13       0.000000000000e+00       3.082156625017e-11       3.788809384365e-12      -1.114779145850e-14 
   64       2.319932586111e-10       3.420619265981e-14      -4.443903624316e-13       0.000000000000e+00       2.971533459043e-11       3.673593212468e-12      -1.108811091842e-14 
   65       2.351050200586e-10       3.579150887664e-14      -4.949063645616e-13       0.000000000000e+00       2.866374226287e-11       3.564031042693e-12      -1.096272092528e-14 
   66       2.382465329954e-10       3.741138714318e-14      -5.471593740932e-13       0.000000000000e+00       2.766260939707e-11       3.459546002889e-12      -1.079149135144e-14 
   67       2.414170744138e-10       3.906459978390e-14      -6.011350228186e-13       0.000000000000e+00       2.670619034059e-11       3.359377280576e-12      -1.059715374144e-14 
   68       2.446157983161e-10       4.074991894870e-14      -6.568167639073e-13       0.000000000000e+00       2.578870722846e-11       3.262779192571e-12      -1.040086516032e-14 
   69       2.478438876884e-10       4.246650639436e-14      -7.141849211514e-13       0.000000000000e+00       2.490948170623e-11       3.169684890176e-12      -1.020760666640e-14 
   70       2.511027565864e-10       4.421359746219e-14      -7.732174527485e-13       0.000000000000e+00       2.406871104162e-11       3.080161958781e-12      -1.001801292360e-14 
   71       2.543933802644e-10       4.599038662522e-14      -8.338902254321e-13       0.000000000000e+00       2.326591609177e-11       2.994213038600e-12      -9.832653382763e-15 
   72       2.577162658028e-10       4.779602748577e-14      -8.961770105792e-13       0.000000000000e+00       2.249990634097e-11       2.911772347234e-12      -9.652027489341e-15 
   73       2.610714227357e-10       4.962963277307e-14      -9.600494803176e-13       0.000000000000e+00       2.176874493849e-11       2.832702202237e-12      -9.476559891124e-15 
   74       2.644583336786e-10       5.149027434091e-14      -1.025477203634e-12       0.000000000000e+00       2.106971373638e-11       2.756789543678e-12      -9.306595645952e-15 
   75       2.678759249558e-10       5.337698316521e-14      -1.092427642480e-12       0.000000000000e+00       2.039927832721e-11       2.683742456704e-12      -9.142395429428e-15 
   76       2.713231276153e-10       5.528869618732e-14      -1.160866167939e-12       0.000000000000e+00       1.975396491037e-11       2.613268232596e-12      -8.984290269318e-15 
   77       2.748007435101e-10       5.722408565827e-14      -1.230756120728e-12       0.000000000000e+00       1.913325277912e-11       2.545331672791e-12      -8.833188917856e-15 
   78       2.783098677228e-10       5.918169852569e-14      -1.302058754708e-12       0.000000000000e+00       1.853714822382e-11       2.479937788884e-12      -8.690154724470e-15 
   79       2.818513113806e-10       6.116000575270e-14      -1.374733214379e-12       0.000000000000e+00       1.796530349506e-11       2.417052666617e-12      -8.556252820615e-15 
   80       2.854255843890e-10       6.315740122555e-14      -1.448736531399e-12       0.000000000000e+00       1.741700053928e-11       2.356601660452e-12      -8.432548598716e-15 
   81       2.890328781657e-10       6.517220066126e-14      -1.524023621104e-12       0.000000000000e+00       1.689113473433e-11       2.298467588147e-12      -8.320106191105e-15 
   82       2.926730483750e-10       6.720264051527e-14      -1.600547279025e-12       0.000000000000e+00       1.638619862503e-11       2.242488925339e-12      -8.219986948959e-15 
   83       2.963455976613e-10       6.924687688905e-14      -1.678258177409e-12       0.000000000000e+00       1.590026565874e-11       2.188458000111e-12      -8.133247921241e-15 
   84       3.000499704547e-10       7.130305220921e-14      -1.757105519696e-12       0.000000000000e+00       1.543145812968e-11       2.136172067079e-12      -8.060517292400e-15 
   85       3.037865313622e-10       7.336951035815e-14      -1.837039136243e-12       0.000000000000e+00       1.497947577099e-11       2.085600212746e-12      -8.000643158317e-15 
   86       3.075557180704e-10       7.544461537051e-14      -1.918007731262e-12       0.000000000000e+00       1.454429192902e-11       2.036740938012e-12      -7.951816915737e-15 
   87       3.113577318516e-10       7.752668687872e-14      -1.999958263214e-12       0.000000000000e+00       1.412568387882e-11       1.989570835618e-12      -7.911967883184e-15 
   88       3.151925255429e-10       7.961400015961e-14      -2.082835952383e-12       0.000000000000e+00       1.372322469766e-11       1.944043673446e-12      -7.878754669961e-15 
   89       3.190597915245e-10       8.170478618109e-14      -2.166584288457e-12       0.000000000000e+00       1.333627513856e-11       1.900089477836e-12      -7.849556545154e-15 
   90       3.229589496991e-10       8.379723164880e-14      -2.251145038104e-12       0.000000000000e+00       1.296397550382e-11       1.857613616884e-12      -7.821464806635e-15 
   91       3.268891354702e-10       8.588947905277e-14      -2.336458252546e-12       0.000000000000e+00       1.260523751855e-11       1.816495883759e-12      -7.791274150060e-15 
   92       3.308491877219e-10       8.797962671407e-14      -2.422462275139e-12       0.000000000000e+00       1.225873620423e-11       1.776589580003e-12      -7.755474037875e-15 
   93       3.348380023665e-10       9.006575702737e-14      -2.509094500565e-12       0.000000000000e+00       1.192322409471e-11       1.737758388640e-12      -7.711047972536e-15 
   94       3.388556799276e-10       9.214602594612e-14      -2.596293766569e-12       0.000000000000e+00       1.159854559404e-11       1.699995328338e-12      -7.658027572448e-15 
   95       3.429025291313e-10       9.421858710480e-14      -2.683998337621e-12       0.000000000000e+00       1.128476086300e-11       1.663320078336e-12      -7.597308458773e-15 
   96       3.469787098057e-10       9.628156525016e-14      -2.772145203007e-12       0.000000000000e+00       1.098183341779e-11       1.627742390116e-12      -7.529879004247e-15 
   97       3.510842258779e-10       9.833305667488e-14      -2.860670094724e-12       0.000000000000e+00       1.068962642834e-11       1.593261689450e-12      -7.456822792154e-15 
   98       3.552189183715e-10       1.003711296513e-13      -2.949507505373e-12       0.000000000000e+00       1.040789901660e-11       1.559866678439e-12      -7.379321075295e-15 
   99       3.593824584027e-10       1.023938248650e-13      -3.038590706053e-12       0.000000000000e+00       1.013630255474e-11       1.527534937554e-12      -7.298655234957e-15 
  100       3.635743401782e-10       1.043991558487e-13      -3.127851764258e-12       0.000000000000e+00       9.874376963524e-12       1.496232527681e-12      -7.216209239888e-15 
  101       3.677938739918e-10       1.063851094158e-13      -3.217221561766e-12       0.000000000000e+00       9.621547010505e-12       1.465913592160e-12      -7.133472105266e-15 
  102       3.720401792210e-10       1.083496460942e-13      -3.306629812538e-12       0.000000000000e+00       9.377118608345e-12       1.436519958830e-12      -7.052040351665e-15 
  103       3.763121773248e-10       1.102907005597e-13      -3.396005080612e-12       0.000000000000e+00       9.140275113075e-12       1.407980742069e-12      -6.973620464034e-15 
  104       3.806088174210e-10       1.122062334262e-13      -3.485275368715e-12       0.000000000000e+00       8.910262376824e-12       1.380229030853e-12      -6.899666514759e-15 
  105       3.849298028075e-10       1.140943936475e-13      -3.574369936120e-12       0.000000000000e+00       8.686980348599e-12       1.353255377481e-12      -6.830231986340e-15 
  106       3.892749499851e-10       1.159533789641e-13      -3.663217760862e-12       0.000000000000e+00       8.470464861108e-12       1.327060826123e-12      -6.764966708870e-15 
  107       3.936439604465e-10       1.177813874924e-13      -3.751747014818e-12       0.000000000000e+00       8.260704404888e-12       1.301640264375e-12      -6.703466314040e-15 
