# dimensionless total [l(l+1)/2pi] C_l's
# for l=2 to 3000, i.e. number of multipoles equal to 2999
#
# -> if you prefer output in CAMB/HealPix/LensPix units/order, set 'format' to 'camb' in input file
# -> if you don't want to see such a header, set 'headers' to 'no' in input file
# -> for CMB lensing (phi), these are C_l^phi-phi for the lensing potential.
#    Remember the conversion factors:
#    C_l^dd (deflection) = l(l+1) C_l^phi-phi
#    C_l^gg (shear/convergence) = 1/4 (l(l+1))^2 C_l^phi-phi
#
# 1:l     2:TT                     3:EE                     4:TE                     5:BB                     6:phiphi                 7:TPhi                   8:Ephi               
    2       1.370217000745e-10       4.143084799136e-15       3.535899286902e-13       0.000000000000e+00       8.184136152207e-09       4.433138148724e-10      -1.839595892165e-12 
    3       1.298239767449e-10       5.312029667102e-15       3.964984264183e-13       0.000000000000e+00       5.037509738617e-09       3.146690061253e-10      -1.394593898525e-12 
    4       1.229851783705e-10       4.599101848739e-15       3.705980388892e-13       0.000000000000e+00       3.505849771644e-09       2.381189368663e-10      -9.139984706842e-13 
    5       1.178687615502e-10       3.071326156739e-15       3.154887205750e-13       0.000000000000e+00       2.616574066508e-09       1.879458467957e-10      -5.092804540357e-13 
    6       1.143664810168e-10       1.717903679262e-15       2.539306577450e-13       0.000000000000e+00       2.042994691968e-09       1.528182837812e-10      -2.108892909008e-13 
    7       1.120858275749e-10       9.267614168677e-16       1.992298837800e-13       0.000000000000e+00       1.646905142321e-09       1.270316563414e-10      -2.034693597188e-14 
    8       1.107664883459e-10       5.956389206074e-16       1.571989063997e-13       0.000000000000e+00       1.359364876674e-09       1.074962257424e-10       7.712106621353e-14 
    9       1.101780497672e-10       4.768090083287e-16       1.290997365074e-13       0.000000000000e+00       1.142855019249e-09       9.238972974828e-11       1.046903355343e-13 
   10       1.100689874030e-10       4.062279072565e-16       1.135923913737e-13       0.000000000000e+00       9.755212444948e-10       8.045956334545e-11       8.811030882086e-14 
   11       1.104065566740e-10       3.417372090930e-16       1.080030782233e-13       0.000000000000e+00       8.232296609080e-10       7.115692817222e-11       5.146272846205e-14 
   12       1.110287132374e-10       2.981654899292e-16       1.092365557277e-13       0.000000000000e+00       7.189448927421e-10       6.290069196165e-11       1.217253746648e-14 
   13       1.118778761278e-10       2.863146999260e-16       1.146091202674e-13       0.000000000000e+00       6.333745143612e-10       5.621634015093e-11      -1.774432533850e-14 
   14       1.129481227771e-10       2.984557446263e-16       1.221223389055e-13       0.000000000000e+00       5.622154932097e-10       5.045317842362e-11      -3.402224936685e-14 
   15       1.141908714544e-10       3.231650901779e-16       1.304081207923e-13       0.000000000000e+00       5.023437925694e-10       4.557529497495e-11      -3.695704926822e-14 
   16       1.155309547341e-10       3.581456378486e-16       1.388454731339e-13       0.000000000000e+00       4.514601825668e-10       4.135752446460e-11      -3.039620289543e-14 
   17       1.170037586876e-10       4.087355393495e-16       1.473148273389e-13       0.000000000000e+00       4.078285422556e-10       3.767002877134e-11      -1.947141952691e-14 
   18       1.185553738926e-10       4.801699520604e-16       1.559303503432e-13       0.000000000000e+00       3.699740256158e-10       3.447450191945e-11      -9.027166924252e-15 
   19       1.201993726117e-10       5.727873306833e-16       1.648901781887e-13       0.000000000000e+00       3.372906599279e-10       3.171796311483e-11      -1.663463798973e-15 
   20       1.219263128510e-10       6.846716069895e-16       1.743807631536e-13       0.000000000000e+00       3.085155011090e-10       2.926475539442e-11       8.960541716093e-16 
   21       1.237286565441e-10       8.152326451876e-16       1.843861302409e-13       0.000000000000e+00       2.831938802871e-10       2.706646853737e-11      -7.889094461362e-16 
   22       1.255710552265e-10       9.640090481789e-16       1.947393084005e-13       0.000000000000e+00       2.607171572120e-10       2.507335533461e-11      -4.974423967116e-15 
   23       1.274678074852e-10       1.131121038281e-15       2.050775001473e-13       0.000000000000e+00       2.407745932986e-10       2.329021969961e-11      -9.907233496264e-15 
   24       1.294256868822e-10       1.316752883427e-15       2.149375184545e-13       0.000000000000e+00       2.229035476484e-10       2.171257399841e-11      -1.372265504593e-14 
   25       1.314363519450e-10       1.521334639515e-15       2.240471056986e-13       0.000000000000e+00       2.068925572638e-10       2.030119698740e-11      -1.562305402676e-14 
   26       1.334740080457e-10       1.745521778895e-15       2.322002954057e-13       0.000000000000e+00       1.924505304668e-10       1.899656824431e-11      -1.531700652509e-14 
   27       1.355458043555e-10       1.991000942274e-15       2.393142159976e-13       0.000000000000e+00       1.794033243840e-10       1.779959823739e-11      -1.341898955769e-14 
   28       1.376587773299e-10       2.259797179144e-15       2.453676519495e-13       0.000000000000e+00       1.675251353618e-10       1.672002415825e-11      -1.091262567948e-14 
   29       1.398198623228e-10       2.553369673392e-15       2.504002190841e-13       0.000000000000e+00       1.567548001060e-10       1.575228842542e-11      -8.421673201839e-15 
   30       1.420228438203e-10       2.873025597726e-15       2.545003770890e-13       0.000000000000e+00       1.469761513367e-10       1.487442207043e-11      -6.567282443565e-15 
   31       1.442511194579e-10       3.220014580843e-15       2.577635275015e-13       0.000000000000e+00       1.379890730926e-10       1.405656731422e-11      -5.926437520878e-15 
   32       1.465091505713e-10       3.595257319520e-15       2.601582871003e-13       0.000000000000e+00       1.297468039625e-10       1.329458447959e-11      -6.351609704330e-15 
   33       1.488001923910e-10       3.999501855994e-15       2.616100064658e-13       0.000000000000e+00       1.221907297589e-10       1.258752191968e-11      -7.384556266012e-15 
   34       1.511200204436e-10       4.433453911781e-15       2.620258596462e-13       0.000000000000e+00       1.152147054064e-10       1.193060593743e-11      -8.503210324388e-15 
   35       1.534679399366e-10       4.898020153869e-15       2.612655067627e-13       0.000000000000e+00       1.087827745691e-10       1.132333681376e-11      -9.409118932854e-15 
   36       1.558378266752e-10       5.394142410034e-15       2.591574438266e-13       0.000000000000e+00       1.028430784960e-10       1.076341662826e-11      -9.831521950103e-15 
   37       1.582198688758e-10       5.922707792391e-15       2.555428038037e-13       0.000000000000e+00       9.731801788900e-11       1.024578281127e-11      -9.544797461861e-15 
   38       1.606198430744e-10       6.484469441571e-15       2.504053675292e-13       0.000000000000e+00       9.219318862690e-11       9.768033514479e-12      -8.699273185662e-15 
   39       1.630450851367e-10       7.080092834282e-15       2.437850061103e-13       0.000000000000e+00       8.745223095372e-11       9.326241316168e-12      -7.603256871861e-15 
   40       1.654986971508e-10       7.710171040638e-15       2.357446779950e-13       0.000000000000e+00       8.304978232754e-11       8.913143770338e-12      -6.640773336920e-15 
   41       1.679806705171e-10       8.375260116662e-15       2.263458128818e-13       0.000000000000e+00       7.892725434599e-11       8.520532511644e-12      -6.170857592570e-15 
   42       1.704928853032e-10       9.076010336163e-15       2.155614509107e-13       0.000000000000e+00       7.507242013441e-11       8.148025709507e-12      -6.174237720421e-15 
   43       1.730349048832e-10       9.813069839043e-15       2.033371903788e-13       0.000000000000e+00       7.147496785114e-11       7.796682394261e-12      -6.499875042008e-15 
   44       1.756021211979e-10       1.058704639794e-14       1.896143893868e-13       0.000000000000e+00       6.810862147055e-11       7.466487735554e-12      -6.958317895404e-15 
   45       1.781884235276e-10       1.139850549782e-14       1.743359186904e-13       0.000000000000e+00       6.494050722238e-11       7.156642898109e-12      -7.363740414504e-15 
   46       1.807960620122e-10       1.224796838958e-14       1.574663835478e-13       0.000000000000e+00       6.196558575190e-11       6.866762333286e-12      -7.680630393824e-15 
   47       1.834280791062e-10       1.313591020658e-14       1.389772888164e-13       0.000000000000e+00       5.918035285570e-11       6.595872455664e-12      -7.916924180317e-15 
   48       1.860853093149e-10       1.406275806464e-14       1.188413910909e-13       0.000000000000e+00       5.657245561349e-11       6.341986492967e-12      -8.083588154353e-15 
   49       1.887661706581e-10       1.502888915207e-14       9.703266514326e-14       0.000000000000e+00       5.412003459541e-11       6.102031441935e-12      -8.194806459629e-15 
   50       1.914682272887e-10       1.603459864639e-14       7.352455303198e-14       0.000000000000e+00       5.179829836871e-11       5.872739599887e-12      -8.268133857512e-15 
   51       1.941938611902e-10       1.707999762942e-14       4.828422900238e-14       0.000000000000e+00       4.960287693870e-11       5.653777911896e-12      -8.324567670053e-15 
   52       1.969457795298e-10       1.816508416082e-14       2.127671984838e-14       0.000000000000e+00       4.753167030036e-11       5.445341788271e-12      -8.388819867747e-15 
   53       1.997252558400e-10       1.928976777840e-14      -7.533625477239e-15       0.000000000000e+00       4.557786025651e-11       5.247237773000e-12      -8.489535325828e-15 
   54       2.025320048307e-10       2.045386616820e-14      -3.818325023805e-14       0.000000000000e+00       4.372959296868e-11       5.058855891417e-12      -8.659477912972e-15 
   55       2.053650731652e-10       2.165717458894e-14      -7.070266263162e-14       0.000000000000e+00       4.197358935832e-11       4.879426216884e-12      -8.925096134502e-15 
   56       2.082260577157e-10       2.289970197034e-14      -1.050940348914e-13       0.000000000000e+00       4.030775385627e-11       4.708926557405e-12      -9.271758300433e-15 
   57       2.111164675148e-10       2.418148763399e-14      -1.413482396581e-13       0.000000000000e+00       3.873114190020e-11       4.547351822624e-12      -9.670206975818e-15 
   58       2.140366940966e-10       2.550253319312e-14      -1.794510552074e-13       0.000000000000e+00       3.724014567819e-11       4.394433342739e-12      -1.008620002452e-14 
   59       2.169859258910e-10       2.686280205717e-14      -2.193830132667e-13       0.000000000000e+00       3.582832971270e-11       4.249622289644e-12      -1.048028291430e-14 
   60       2.199620626194e-10       2.826221893649e-14      -2.611192468329e-13       0.000000000000e+00       3.448626644453e-11       4.112073098059e-12      -1.080756102200e-14 
   61       2.229628279058e-10       2.970058594645e-14      -3.046345440109e-13       0.000000000000e+00       3.320415090450e-11       3.980879309729e-12      -1.102810643514e-14 
   62       2.259895926072e-10       3.117731003512e-14      -3.499201794098e-13       0.000000000000e+00       3.198070250193e-11       3.855880473062e-12      -1.114142312305e-14 
   63       2.290442616688e-10       3.269161321638e-14      -3.969706078769e-13       0.000000000000e+00       3.081597867225e-11       3.737007765550e-12      -1.115934900144e-14 
   64       2.321281049923e-10       3.424260749219e-14      -4.457786045954e-13       0.000000000000e+00       2.970869737780e-11       3.624039152903e-12      -1.109621163837e-14 
   65       2.352417098487e-10       3.582929171098e-14      -4.963352780848e-13       0.000000000000e+00       2.865616087013e-11       3.516590819385e-12      -1.096893798382e-14 
   66       2.383849332928e-10       3.745054842609e-14      -5.486300832010e-13       0.000000000000e+00       2.765417945228e-11       3.414108598134e-12      -1.079716409941e-14 
   67       2.415568545759e-10       3.910514075414e-14      -6.026508341367e-13       0.000000000000e+00       2.669699524106e-11       3.315859401499e-12      -1.060334488799e-14 
   68       2.447564634217e-10       4.079183190573e-14      -6.583829385881e-13       0.000000000000e+00       2.577881825688e-11       3.221123652382e-12      -1.040836405037e-14 
   69       2.479849931683e-10       4.250977892462e-14      -7.158068909974e-13       0.000000000000e+00       2.489896653982e-11       3.129837012000e-12      -1.021708572588e-14 
   70       2.512439770681e-10       4.425821345336e-14      -7.749002923961e-13       0.000000000000e+00       2.405763538504e-11       3.042063885580e-12      -1.003005890559e-14 
   71       2.545345260040e-10       4.603632611594e-14      -8.356385775016e-13       0.000000000000e+00       2.325434279461e-11       2.957804558910e-12      -9.847752912923e-15 
   72       2.578572997237e-10       4.784326651356e-14      -8.979950077991e-13       0.000000000000e+00       2.248789447571e-11       2.876991769362e-12      -9.670552049566e-15 
   73       2.612124780729e-10       4.967814322047e-14      -9.619406646222e-13       0.000000000000e+00       2.175634883896e-11       2.799487276906e-12      -9.498750241427e-15 
   74       2.645997322288e-10       5.154002377978e-14      -1.027444442235e-12       0.000000000000e+00       2.105698199668e-11       2.725078435135e-12      -9.332545684575e-15 
   75       2.680181959337e-10       5.342793469919e-14      -1.094473040913e-12       0.000000000000e+00       2.038625276121e-11       2.653474762279e-12      -9.172035491179e-15 
   76       2.714669722713e-10       5.534080871487e-14      -1.162991026960e-12       0.000000000000e+00       1.974068079774e-11       2.584385416537e-12      -9.017383017236e-15 
   77       2.749468242740e-10       5.727731548966e-14      -1.232961040699e-12       0.000000000000e+00       1.911974332957e-11       2.517775512502e-12      -8.869366907906e-15 
   78       2.784587417751e-10       5.923599989077e-14      -1.304343614012e-12       0.000000000000e+00       1.852344552413e-11       2.453650532662e-12      -8.728922911159e-15 
   79       2.820034157195e-10       6.121533091500e-14      -1.377097101319e-12       0.000000000000e+00       1.795143818619e-11       2.391977828290e-12      -8.596978294390e-15 
   80       2.855812203785e-10       6.321370060317e-14      -1.451177674026e-12       0.000000000000e+00       1.740300148105e-11       2.332684849477e-12      -8.474450031337e-15 
   81       2.891921955651e-10       6.522942295467e-14      -1.526539314981e-12       0.000000000000e+00       1.687702865789e-11       2.275657375152e-12      -8.362242989004e-15 
   82       2.928360288497e-10       6.726073284190e-14      -1.603133812931e-12       0.000000000000e+00       1.637200977296e-11       2.220737743116e-12      -8.261248114585e-15 
   83       2.965120377749e-10       6.930578492475e-14      -1.680910756968e-12       0.000000000000e+00       1.588601541283e-11       2.167723080067e-12      -8.172340622384e-15 
   84       3.002195047736e-10       7.136272012032e-14      -1.759818464221e-12       0.000000000000e+00       1.541716511297e-11       2.116415135942e-12      -8.096029578788e-15 
   85       3.039587846727e-10       7.342988005054e-14      -1.839806951747e-12       0.000000000000e+00       1.496515748959e-11       2.066783156271e-12      -8.031343882946e-15 
   86       3.077303490359e-10       7.550562632045e-14      -1.920825449439e-12       0.000000000000e+00       1.452996510801e-11       2.018824890993e-12      -7.976757422425e-15 
   87       3.115344381039e-10       7.758827617304e-14      -2.002821520584e-12       0.000000000000e+00       1.411136433026e-11       1.972516501451e-12      -7.930513696078e-15 
   88       3.153710489370e-10       7.967610253912e-14      -2.085741072008e-12       0.000000000000e+00       1.370892718442e-11       1.927811657725e-12      -7.890618142108e-15 
   89       3.192399235584e-10       8.176733408720e-14      -2.169528364208e-12       0.000000000000e+00       1.332201323407e-11       1.884640635954e-12      -7.854830466136e-15 
   90       3.231405370973e-10       8.386015527330e-14      -2.254126021496e-12       0.000000000000e+00       1.294976144766e-11       1.842909415662e-12      -7.820656969267e-15 
   91       3.270720859317e-10       8.595270639091e-14      -2.339475042134e-12       0.000000000000e+00       1.259108206791e-11       1.802498777093e-12      -7.785342876157e-15 
   92       3.310334758317e-10       8.804308362077e-14      -2.425514808473e-12       0.000000000000e+00       1.224464848119e-11       1.763263398528e-12      -7.745864663075e-15 
   93       3.350236629339e-10       9.012936707081e-14      -2.512183593268e-12       0.000000000000e+00       1.190921169417e-11       1.725068468952e-12      -7.699608605573e-15 
   94       3.390427610804e-10       9.220970961144e-14      -2.599420143702e-12       0.000000000000e+00       1.158461552719e-11       1.687907785632e-12      -7.646539824628e-15 
   95       3.430910798763e-10       9.428226155548e-14      -2.687162355451e-12       0.000000000000e+00       1.127091978384e-11       1.651801832114e-12      -7.587346798496e-15 
   96       3.471687797782e-10       9.634514428685e-14      -2.775346814463e-12       0.000000000000e+00       1.096808759560e-11       1.616761463000e-12      -7.522785934643e-15 
   97       3.512758650801e-10       9.839645069464e-14      -2.863908813901e-12       0.000000000000e+00       1.067598171969e-11       1.582787516246e-12      -7.453683317436e-15 
   98       3.554121769003e-10       1.004342456073e-13      -2.952782371095e-12       0.000000000000e+00       1.039436083679e-11       1.549870425450e-12      -7.380936455834e-15 
   99       3.595773861671e-10       1.024565662264e-13      -3.041900244492e-12       0.000000000000e+00       1.012287584883e-11       1.517989832149e-12      -7.305516031074e-15 
  100       3.637709866056e-10       1.044614225613e-13      -3.131193950606e-12       0.000000000000e+00       9.861066176781e-12       1.487114198112e-12      -7.228467644365e-15 
  101       3.679922877240e-10       1.064467978627e-13      -3.220593780965e-12       0.000000000000e+00       9.608356058382e-12       1.457200417636e-12      -7.150913564575e-15 
  102       3.722404077995e-10       1.084106490568e-13      -3.310028819061e-12       0.000000000000e+00       9.364050845956e-12       1.428193429837e-12      -7.074054475922e-15 
  103       3.765142668651e-10       1.103509071796e-13      -3.399426957301e-12       0.000000000000e+00       9.127333304166e-12       1.400025830946e-12      -6.999171225666e-15 
  104       3.808128113707e-10       1.122655296646e-13      -3.488715602933e-12       0.000000000000e+00       8.897448734317e-12       1.372633807077e-12      -6.927359567256e-15 
  105       3.851357378373e-10       1.141526643159e-13      -3.577823867941e-12       0.000000000000e+00       8.674296801964e-12       1.346008218790e-12      -6.858689816780e-15 
  106       3.894828543375e-10       1.160105083975e-13      -3.666680707946e-12       0.000000000000e+00       8.457913126758e-12       1.320149726635e-12      -6.792936408086e-15 
  107       3.938538531359e-10       1.178372597498e-13      -3.755214283876e-12       0.000000000000e+00       8.248285987512e-12       1.295052881066e-12      -6.729833588194e-15 
