# dimensionless total lensed [l(l+1)/2pi] C_l's
# for l=2 to 2500, i.e. number of multipoles equal to 2499
#
# -> if you prefer output in CAMB/HealPix/LensPix units/order, set 'format' to 'camb' in input file
# -> if you don't want to see such a header, set 'headers' to 'no' in input file
# -> for CMB lensing (phi), these are C_l^phi-phi for the lensing potential.
#    Remember the conversion factors:
#    C_l^dd (deflection) = l(l+1) C_l^phi-phi
#    C_l^gg (shear/convergence) = 1/4 (l(l+1))^2 C_l^phi-phi
#
# 1:l     2:TT                     3:EE                     4:TE                     5:BB                     6:phiphi                 7:TPhi                   8:Ephi               
    2       1.382794443936e-10       4.139394894785e-15       3.534439497721e-13       2.237213399131e-19       8.131010197544e-09       4.461707721510e-10      -1.834618008193e-12 
    3       1.309946960953e-10       5.308672875249e-15       3.961212051652e-13       4.475350547693e-19       4.995689466407e-09       3.176114517264e-10      -1.390212029455e-12 
    4       1.240379916319e-10       4.598539498372e-15       3.703916186130e-13       7.460951897080e-19       3.475501196806e-09       2.410279139218e-10      -9.104799441395e-13 
    5       1.188024243447e-10       3.073522602671e-15       3.157200885463e-13       1.119519827259e-18       2.593980666318e-09       1.907161238203e-10      -5.064079400536e-13 
    6       1.151933195710e-10       1.721533653067e-15       2.546467420796e-13       1.567952318878e-18       2.025679054727e-09       1.554172456510e-10      -2.084546794680e-13 
    7       1.128197803776e-10       9.309069992359e-16       2.002919150225e-13       2.091558640870e-18       1.633351882114e-09       1.294573129334e-10      -1.811712803147e-14 
    8       1.114190582342e-10       6.001551734444e-16       1.583719003440e-13       2.690524403052e-18       1.348571906028e-09       1.097451406391e-10       7.931549593570e-14 
    9       1.107556746144e-10       4.817848247429e-16       1.301446780087e-13       3.365051598345e-18       1.134215567132e-09       9.445773472817e-11       1.069289797370e-13 
   10       1.105865744309e-10       4.115350274723e-16       1.143367986011e-13       4.115355187711e-18       9.684890303771e-10       8.235408587604e-11       9.039036710954e-14 
   11       1.108701372725e-10       3.471065879104e-16       1.083824470971e-13       4.941659617815e-18       8.170526169767e-10       7.288640447210e-11       5.371308779725e-14 
   12       1.114435291275e-10       3.035283154933e-16       1.093011940647e-13       5.844195368351e-18       7.136708527974e-10       6.450743305722e-11       1.432882822627e-14 
   13       1.122569477911e-10       2.919689280922e-16       1.144703613540e-13       6.823195622200e-18       6.288335457018e-10       5.770685776987e-11      -1.576383298638e-14 
   14       1.132842740897e-10       3.049263387006e-16       1.219066045808e-13       7.878893144673e-18       5.582756355982e-10       5.181494732231e-11      -3.228971220226e-14 
   15       1.144937812597e-10       3.309439809716e-16       1.302337384494e-13       9.011517448297e-18       4.989028844202e-10       4.683552513583e-11      -3.545952960772e-14 
   16       1.158041523287e-10       3.675128911879e-16       1.387944641164e-13       1.022129230730e-17       4.484374301138e-10       4.252845523577e-11      -2.910529776560e-14 
   17       1.172550970005e-10       4.197517239675e-16       1.473974475124e-13       1.150843367170e-17       4.051590661165e-10       3.876072349883e-11      -1.833649817741e-14 
   18       1.187836926751e-10       4.927574148485e-16       1.561206160210e-13       1.287314784182e-17       3.676062675790e-10       3.548728838374e-11      -7.995431114118e-15 
   19       1.204023414070e-10       5.868346070857e-16       1.651389897733e-13       1.431563113384e-17       3.351794878791e-10       3.265685809126e-11      -6.943493371618e-16 
   20       1.221051933191e-10       7.000746508783e-16       1.746209760289e-13       1.583606720690e-17       3.066265900625e-10       3.013815426110e-11       1.822850577313e-15 
   21       1.238880952041e-10       8.319193941306e-16       1.845687210936e-13       1.743462943964e-17       2.814973037226e-10       2.788259533011e-11       1.023983364326e-16 
   22       1.257180026560e-10       9.819687204662e-16       1.948495042976e-13       1.911147800128e-17       2.591885819878e-10       2.583728538786e-11      -4.124652282894e-15 
   23       1.276054293077e-10       1.150441106194e-15       2.051189830540e-13       2.086676360594e-17       2.393926425127e-10       2.400319835613e-11      -9.110107239935e-15 
   24       1.295520704372e-10       1.337625458853e-15       2.149290934650e-13       2.270062453247e-17       2.216508579609e-10       2.237275911612e-11      -1.299241214129e-14 
   25       1.315531476312e-10       1.543946141626e-15       2.240203374359e-13       2.461319199496e-17       2.057537744600e-10       2.091382852524e-11      -1.497696825756e-14 
   26       1.335878344589e-10       1.770009425208e-15       2.321941885582e-13       2.660458655015e-17       1.914128598063e-10       1.957497334660e-11      -1.477086777608e-14 
   27       1.356582854597e-10       2.017455096671e-15       2.393496066869e-13       2.867492325711e-17       1.784555251853e-10       1.834969862729e-11      -1.296471746546e-14 
   28       1.377641219860e-10       2.288261323986e-15       2.454393912752e-13       3.082430922181e-17       1.666578489898e-10       1.723635337552e-11      -1.051423317628e-14 
   29       1.399134146041e-10       2.583872160445e-15       2.504971518707e-13       3.305285200952e-17       1.559593044558e-10       1.623103410006e-11      -8.046858078233e-15 
   30       1.421045064106e-10       2.905589243818e-15       2.546116559195e-13       3.536065262343e-17       1.462447374237e-10       1.531839386282e-11      -6.200854516736e-15 
   31       1.443252343821e-10       3.254656089087e-15       2.578792951120e-13       3.774780547497e-17       1.373156361992e-10       1.447467398444e-11      -5.571591790487e-15 
   32       1.465792925786e-10       3.631983189425e-15       2.602704383537e-13       4.021440898731e-17       1.291256920008e-10       1.369365971468e-11      -6.014414786927e-15 
   33       1.488670954794e-10       4.038306475662e-15       2.617130191040e-13       4.276055875787e-17       1.216167956689e-10       1.296880039407e-11      -7.069060190849e-15 
   34       1.511817801372e-10       4.474328423379e-15       2.621179269203e-13       4.538634627940e-17       1.146836298815e-10       1.228990358670e-11      -8.211514781358e-15 
   35       1.535237758589e-10       4.940995674256e-15       2.613505433630e-13       4.809186417432e-17       1.082905721100e-10       1.165769018110e-11      -9.143808688929e-15 
   36       1.558895520959e-10       5.439312101507e-15       2.592466733643e-13       5.087720290060e-17       1.023861971944e-10       1.107353430192e-11      -9.596571766816e-15 
   37       1.582716506819e-10       5.970220503872e-15       2.556533797299e-13       5.374244897502e-17       9.689350565787e-11       1.053589353844e-11      -9.344839355677e-15 
   38       1.606751812174e-10       6.534453599611e-15       2.505492798271e-13       5.668768325971e-17       9.179824331631e-11       1.004245588211e-11      -8.535289390094e-15 
   39       1.631056424913e-10       7.132626724124e-15       2.439643860125e-13       5.971298223351e-17       8.708419840765e-11       9.588148481153e-12      -7.470605747023e-15 
   40       1.655638346143e-10       7.765270757317e-15       2.359495163686e-13       6.281841852516e-17       8.270633925329e-11       9.164169715704e-12      -6.528087439040e-15 
   41       1.680476457257e-10       8.432886285443e-15       2.265552347005e-13       6.600405817252e-17       7.860648993434e-11       8.760765516547e-12      -6.061262415484e-15 
   42       1.705593751342e-10       9.136140360651e-15       2.157573987776e-13       6.926995119010e-17       7.477253698869e-11       8.377382919965e-12      -6.054598030743e-15 
   43       1.730999094487e-10       9.875724642950e-15       2.035094945366e-13       7.261613802679e-17       7.119426579744e-11       8.015305375345e-12      -6.364516948733e-15 
   44       1.756662560797e-10       1.065230001541e-14       1.897625927771e-13       7.604265196566e-17       6.784559479154e-11       7.674761711985e-12      -6.810687411130e-15 
   45       1.782537771041e-10       1.146647830573e-14       1.744689023677e-13       7.954951553917e-17       6.469388241619e-11       7.355167098951e-12      -7.215626067638e-15 
   46       1.808645523019e-10       1.231876410593e-14       1.575943510082e-13       8.313672882130e-17       6.173414202225e-11       7.056155368034e-12      -7.542977583565e-15 
   47       1.835008918976e-10       1.320959326972e-14       1.391092932383e-13       8.680427740091e-17       5.896290764974e-11       6.776693952844e-12      -7.796711506000e-15 
   48       1.861627409985e-10       1.413934607428e-14       1.189849504627e-13       9.055213519741e-17       5.636791501679e-11       6.514701301284e-12      -7.982973621900e-15 
   49       1.888474622940e-10       1.510834489925e-14       9.719335387524e-14       9.438026412441e-17       5.392744735647e-11       6.266971355080e-12      -8.110226172332e-15 
   50       1.915516900227e-10       1.611683715154e-14       7.370613716563e-14       9.828861373153e-17       5.161687153375e-11       6.030104816966e-12      -8.190914393628e-15 
   51       1.942779892856e-10       1.716494396033e-14       4.849066072073e-14       1.022771207951e-16       4.943185561227e-11       5.803776165233e-12      -8.246674136945e-15 
   52       1.970296287093e-10       1.825269354394e-14       2.151273672266e-14       1.063457090351e-16       4.737032267245e-11       5.588222891588e-12      -8.304780167090e-15 
   53       1.998085501746e-10       1.938003180299e-14      -7.262421148017e-15       1.104942887981e-16       4.542550303849e-11       5.383288745376e-12      -8.396950391803e-15 
   54       2.026152489866e-10       2.054681930515e-14      -3.787030891585e-14       1.147227567200e-16       4.358561848128e-11       5.188395591356e-12      -8.559557903157e-15 
   55       2.054494780766e-10       2.175289168919e-14      -7.034098811405e-14       1.190310034117e-16       4.183747254154e-11       5.002797256154e-12      -8.822357921005e-15 
   56       2.083128399887e-10       2.299826535719e-14      -1.046786110351e-13       1.234189395252e-16       4.017898941908e-11       4.826479385174e-12      -9.170903421131e-15 
   57       2.112066289064e-10       2.428297759912e-14      -1.408770038947e-13       1.278864755721e-16       3.860923686954e-11       4.659433836143e-12      -9.575164149423e-15 
   58       2.141309772203e-10       2.560702711774e-14      -1.789253469660e-13       1.324335144438e-16       3.712463294573e-11       4.501379493715e-12      -9.999963383590e-15 
   59       2.170847678027e-10       2.697037348419e-14      -2.188080420664e-13       1.370599513865e-16       3.571878238717e-11       4.351745113815e-12      -1.040474250320e-14 
   60       2.200655462829e-10       2.837293659355e-14      -2.605045800443e-13       1.417656739767e-16       3.438231300948e-11       4.209652167988e-12      -1.074332555974e-14 
   61       2.230707141625e-10       2.981451252630e-14      -3.039933334747e-13       1.465505770329e-16       3.310547658171e-11       4.074159062070e-12      -1.097457348694e-14 
   62       2.261016195683e-10       3.129450029534e-14      -3.492642293357e-13       1.514146113182e-16       3.188700379086e-11       3.945096660728e-12      -1.109767389083e-14 
   63       2.291602332223e-10       3.281211251918e-14      -3.963086986486e-13       1.563577457757e-16       3.072695558483e-11       3.822390715862e-12      -1.112439070632e-14 
   64       2.322479024742e-10       3.436645047022e-14      -4.451159944629e-13       1.613799539965e-16       2.962405968133e-11       3.705808354471e-12      -1.106898144577e-14 
   65       2.353653042164e-10       3.595650087794e-14      -4.956731838866e-13       1.664812146690e-16       2.857563467240e-11       3.594949216211e-12      -1.094830728910e-14 
   66       2.385123977998e-10       3.758113273208e-14      -5.479651401174e-13       1.716615120285e-16       2.757751412901e-11       3.489236590953e-12      -1.078194317388e-14 
   67       2.416883779482e-10       3.923909408584e-14      -6.019745344730e-13       1.769208363058e-16       2.662397070560e-11       3.387908556335e-12      -1.059228788542e-14 
   68       2.448923287480e-10       4.092913519490e-14      -6.576822054799e-13       1.822591921871e-16       2.570924489346e-11       3.290217580104e-12      -1.040019558120e-14 
   69       2.481254447422e-10       4.265041405440e-14      -7.150683707997e-13       1.876766251776e-16       2.483266063619e-11       3.196096102561e-12      -1.021059640369e-14 
   70       2.513891773713e-10       4.440216766907e-14      -7.741116476823e-13       1.931732014114e-16       2.399441469335e-11       3.105610517418e-12      -1.002414660867e-14 
   71       2.546845450878e-10       4.618359302164e-14      -8.347886992802e-13       1.987490007563e-16       2.319402947499e-11       3.018761172204e-12      -9.841444961720e-15 
   72       2.580121042014e-10       4.799384710709e-14      -8.970742363218e-13       2.044041174678e-16       2.243031818579e-11       2.935478837401e-12      -9.663028286995e-15 
   73       2.613719197253e-10       4.983204696695e-14      -9.609410187858e-13       2.101386608428e-16       2.170134996924e-11       2.855621175583e-12      -9.489367016013e-15 
   74       2.647635362209e-10       5.169726972358e-14      -1.026359857575e-12       2.159527558745e-16       2.100441505183e-11       2.778969210551e-12      -9.320860736423e-15 
   75       2.681859486434e-10       5.358855261442e-14      -1.093299616191e-12       2.218465439057e-16       2.033598988722e-11       2.705223796466e-12      -9.157833740781e-15 
   76       2.716381449072e-10       5.550483808304e-14      -1.161726841721e-12       2.278201764341e-16       1.969261134417e-11       2.634085142576e-12      -9.000672989052e-15 
   77       2.751209122505e-10       5.744479741646e-14      -1.231604576412e-12       2.338737937768e-16       1.907376035974e-11       2.565515934487e-12      -8.850280880396e-15 
   78       2.786353088324e-10       5.940697486013e-14      -1.302893331416e-12       2.400075436852e-16       1.847944325125e-11       2.499520002377e-12      -8.707697343124e-15 
   79       2.821821040868e-10       6.138983863336e-14      -1.375551432423e-12       2.462215883545e-16       1.790931336974e-11       2.436061723864e-12      -8.573963239505e-15 
   80       2.857617612913e-10       6.339177983694e-14      -1.449535013727e-12       2.525161049373e-16       1.736265488486e-11       2.375064196258e-12      -8.450118834846e-15 
   81       2.893744201363e-10       6.541111136083e-14      -1.524798012304e-12       2.588912860572e-16       1.683836656967e-11       2.316407408828e-12      -8.337202266588e-15 
   82       2.930198792942e-10       6.744606679171e-14      -1.601292161883e-12       2.653473403223e-16       1.633494558554e-11       2.259926415050e-12      -8.236248013378e-15 
   83       2.966975789882e-10       6.949479932063e-14      -1.678966987019e-12       2.718844928390e-16       1.585047126696e-11       2.205409504875e-12      -8.148285364166e-15 
   84       3.004069082284e-10       7.155544882888e-14      -1.757770680086e-12       2.785029821210e-16       1.538307163691e-11       2.152650242285e-12      -8.073931768288e-15 
   85       3.041482232229e-10       7.362635831664e-14      -1.837652912272e-12       2.852030491020e-16       1.493244733181e-11       2.101617493519e-12      -8.012098782044e-15 
   86       3.079219666239e-10       7.570589151761e-14      -1.918562479890e-12       2.919849472352e-16       1.449857175597e-11       2.052310365909e-12      -7.961067791184e-15 
   87       3.117283460737e-10       7.779236796354e-14      -2.000446471666e-12       2.988489463816e-16       1.408122283063e-11       2.004705939885e-12      -7.918867839312e-15 
   88       3.155673222306e-10       7.988406303771e-14      -2.083250277657e-12       3.057953332633e-16       1.367997489189e-11       1.958758346527e-12      -7.883267288256e-15 
   89       3.194385967944e-10       8.197920802839e-14      -2.166917598157e-12       3.128244119167e-16       1.329419058872e-11       1.914397845130e-12      -7.851765478429e-15 
   90       3.233416005321e-10       8.407599018234e-14      -2.251390452615e-12       3.199365041454e-16       1.292301278090e-11       1.871529900755e-12      -7.821584389189e-15 
   91       3.272754813033e-10       8.617255275828e-14      -2.336609188541e-12       3.271319499733e-16       1.256535643703e-11       1.830034261791e-12      -7.789660299203e-15 
   92       3.312390920864e-10       8.826699508034e-14      -2.422512490421e-12       3.344111080975e-16       1.221990053244e-11       1.789764037509e-12      -7.752635446812e-15 
   93       3.352313409763e-10       9.035740077417e-14      -2.509038035312e-12       3.417743635252e-16       1.188540132366e-11       1.750582640457e-12      -7.707618628251e-15 
   94       3.392523274047e-10       9.244192721674e-14      -2.596124553062e-12       3.492221508147e-16       1.156170366634e-11       1.712482972895e-12      -7.654615961975e-15 
   95       3.433023554636e-10       9.451872970125e-14      -2.683710093865e-12       3.567549351837e-16       1.124886752748e-11       1.675484543913e-12      -7.594451993407e-15 
   96       3.473815802467e-10       9.658593488770e-14      -2.771731426739e-12       3.643732061809e-16       1.094685652052e-11       1.639596804524e-12      -7.528035517361e-15 
   97       3.514900008441e-10       9.864164124320e-14      -2.860124057309e-12       3.720774782385e-16       1.065553421481e-11       1.604818744988e-12      -7.456361793492e-15 
   98       3.556274533365e-10       1.006839194823e-13      -2.948822245605e-12       3.798682912229e-16       1.037466044504e-11       1.571138492132e-12      -7.380514761744e-15 
   99       3.597936037899e-10       1.027108130074e-13      -3.037759023841e-12       3.877462109868e-16       1.010388762069e-11       1.538532906674e-12      -7.301669257790e-15 
  100       3.639879412495e-10       1.047203383489e-13      -3.126866214210e-12       3.957118299210e-16       9.842757035502e-12       1.506967180541e-12      -7.221093228487e-15 
  101       3.682097707344e-10       1.067104856058e-13      -3.216074446670e-12       4.037657675057e-16       9.590695176935e-12       1.476394434194e-12      -7.140149947315e-15 
  102       3.724582062317e-10       1.086792188858e-13      -3.305313176734e-12       4.119086708623e-16       9.347010035593e-12       1.446755313952e-12      -7.060300229829e-15 
  103       3.767321636912e-10       1.106244767458e-13      -3.394510703257e-12       4.201412153052e-16       9.110887414694e-12       1.417977589308e-12      -6.983104649103e-15 
  104       3.810305861580e-10       1.125442242688e-13      -3.483594791203e-12       4.284640855710e-16       8.881575424214e-12       1.389993138649e-12      -6.909894438547e-15 
  105       3.853531688945e-10       1.144366163594e-13      -3.572494597434e-12       4.368779154316e-16       8.658974295898e-12       1.362792386900e-12      -6.840728798288e-15 
  106       3.896997196077e-10       1.162998574309e-13      -3.661139039442e-12       4.453833409140e-16       8.443119734338e-12       1.336376505139e-12      -6.775300210595e-15 
  107       3.940699306564e-10       1.181321527337e-13      -3.749456237743e-12       4.539810192298e-16       8.234000244168e-12       1.310740469833e-12      -6.713251766402e-15 
