# dimensionless total [l(l+1)/2pi] C_l's
# for l=2 to 3000, i.e. number of multipoles equal to 2999
#
# -> if you prefer output in CAMB/HealPix/LensPix units/order, set 'format' to 'camb' in input file
# -> if you don't want to see such a header, set 'headers' to 'no' in input file
# -> for CMB lensing (phi), these are C_l^phi-phi for the lensing potential.
#    Remember the conversion factors:
#    C_l^dd (deflection) = l(l+1) C_l^phi-phi
#    C_l^gg (shear/convergence) = 1/4 (l(l+1))^2 C_l^phi-phi
#
# 1:l     2:TT                     3:EE                     4:TE                     5:BB                     6:phiphi                 7:TPhi                   8:Ephi               
    2       1.380884400572e-10       4.138468754061e-15       3.531732947280e-13       0.000000000000e+00       8.143601136120e-09       4.451384294798e-10      -1.834139936368e-12 
    3       1.308206775233e-10       5.306319828760e-15       3.957190706213e-13       0.000000000000e+00       4.997466841437e-09       3.167047673585e-10      -1.389250161786e-12 
    4       1.238858323696e-10       4.595295045172e-15       3.699611661518e-13       0.000000000000e+00       3.475376504115e-09       2.403130532894e-10      -9.094050981771e-13 
    5       1.186678848806e-10       3.070413046147e-15       3.154202822523e-13       0.000000000000e+00       2.593643006706e-09       1.901434132126e-10      -5.053563592059e-13 
    6       1.150745091906e-10       1.719064375168e-15       2.545643785876e-13       0.000000000000e+00       2.025351474090e-09       1.549587740671e-10      -2.074847884414e-13 
    7       1.127153522047e-10       9.289854351989e-16       2.004279870046e-13       0.000000000000e+00       1.633179349685e-09       1.290996714441e-10      -1.721835705076e-14 
    8       1.113250804043e-10       5.982987217383e-16       1.586477635898e-13       0.000000000000e+00       1.348645239252e-09       1.094679353426e-10       8.017910508479e-14 
    9       1.106660897560e-10       4.794000512079e-16       1.304590452794e-13       0.000000000000e+00       1.134404951832e-09       9.423475684124e-11       1.077870462753e-13 
   10       1.105045541034e-10       4.080884518550e-16       1.146033620591e-13       0.000000000000e+00       9.686114990260e-10       8.216807382343e-11       9.125155249145e-14 
   11       1.107912685408e-10       3.422425406809e-16       1.085145309030e-13       0.000000000000e+00       8.170886248617e-10       7.272742977109e-11       5.455868898990e-14 
   12       1.113684939053e-10       2.971449062605e-16       1.092753550799e-13       0.000000000000e+00       7.137107468592e-10       6.438767554776e-11       1.515350852407e-14 
   13       1.121878407431e-10       2.841602785280e-16       1.143360734600e-13       0.000000000000e+00       6.288777327073e-10       5.761676227216e-11      -1.498415358612e-14 
   14       1.132123836553e-10       2.958694710771e-16       1.217223858757e-13       0.000000000000e+00       5.583229074763e-10       5.173020447881e-11      -3.158348468408e-14 
   15       1.144203806323e-10       3.208198201597e-16       1.300459932802e-13       0.000000000000e+00       4.989528918168e-10       4.676612819139e-11      -3.481084978504e-14 
   16       1.157325675648e-10       3.564325745728e-16       1.386418656356e-13       0.000000000000e+00       4.484897044066e-10       4.247573416311e-11      -2.851359987570e-14 
   17       1.171850797102e-10       4.076832310682e-16       1.473030541208e-13       0.000000000000e+00       4.052132121085e-10       3.872381935550e-11      -1.780281004301e-14 
   18       1.187135497899e-10       4.795389606399e-16       1.560875021440e-13       0.000000000000e+00       3.676617908204e-10       3.545932024762e-11      -7.516110492570e-15 
   19       1.203297778576e-10       5.722566327919e-16       1.651536542903e-13       0.000000000000e+00       3.352359686944e-10       3.263196439654e-11      -2.619488862692e-16 
   20       1.220279363034e-10       6.839128484315e-16       1.746555911986e-13       0.000000000000e+00       3.066836579101e-10       3.011569143906e-11       2.219054598680e-15 
   21       1.238065783463e-10       8.139714715326e-16       1.845995607898e-13       0.000000000000e+00       2.815546306572e-10       2.786455154620e-11       4.740101883964e-16 
   22       1.256357039274e-10       9.620824441540e-16       1.948650750794e-13       0.000000000000e+00       2.592458885579e-10       2.582660088258e-11      -3.768621377585e-15 
   23       1.275230895641e-10       1.128535168773e-15       2.051159511484e-13       0.000000000000e+00       2.394497120442e-10       2.399823340293e-11      -8.772141808341e-15 
   24       1.294665631477e-10       1.313693253520e-15       2.149118176732e-13       0.000000000000e+00       2.217075388193e-10       2.236680047935e-11      -1.268728349105e-14 
   25       1.314645239191e-10       1.517979766901e-15       2.239983252951e-13       0.000000000000e+00       2.058099429993e-10       2.090580406809e-11      -1.470983924839e-14 
   26       1.335006065193e-10       1.741970542825e-15       2.321803649338e-13       0.000000000000e+00       1.914684059542e-10       1.957158776171e-11      -1.453104596825e-14 
   27       1.355732936638e-10       1.987277583234e-15       2.393539435376e-13       0.000000000000e+00       1.785103599781e-10       1.835315360687e-11      -1.274019884810e-14 
   28       1.376765306255e-10       2.255851810140e-15       2.454663419881e-13       0.000000000000e+00       1.667119028179e-10       1.724121861649e-11      -1.029750028230e-14 
   29       1.398190568122e-10       2.549130003849e-15       2.505471648184e-13       0.000000000000e+00       1.560125220741e-10       1.623275779617e-11      -7.837515763226e-15 
   30       1.420024433259e-10       2.868412787416e-15       2.546808952486e-13       0.000000000000e+00       1.462970707268e-10       1.531669500101e-11      -6.008201505702e-15 
   31       1.442177289331e-10       3.214942677746e-15       2.579604832754e-13       0.000000000000e+00       1.373670393138e-10       1.447342304368e-11      -5.412831944774e-15 
   32       1.464681283659e-10       3.589627194740e-15       2.603603493470e-13       0.000000000000e+00       1.291761291228e-10       1.369576854258e-11      -5.897399467776e-15 
   33       1.487521588574e-10       3.993198592114e-15       2.618159767273e-13       0.000000000000e+00       1.216662395001e-10       1.297418913955e-11      -6.984362276716e-15 
   34       1.510612345585e-10       4.426354037760e-15       2.622449574092e-13       0.000000000000e+00       1.147320586916e-10       1.229563449559e-11      -8.133917748075e-15 
   35       1.533966206167e-10       4.890028228546e-15       2.615089093805e-13       0.000000000000e+00       1.083379760883e-10       1.166135916765e-11      -9.053682789199e-15 
   36       1.557566522618e-10       5.385209532172e-15       2.594355535051e-13       0.000000000000e+00       1.024325778344e-10       1.107456059544e-11      -9.488521357223e-15 
   37       1.581355824742e-10       5.912832248948e-15       2.558646775253e-13       0.000000000000e+00       9.693887226822e-11       1.053550287734e-11      -9.227578218850e-15 
   38       1.605380653457e-10       6.473659834535e-15       2.507777973593e-13       0.000000000000e+00       9.184260969121e-11       1.004201203005e-11      -8.418493131979e-15 
   39       1.629683198134e-10       7.068356658549e-15       2.442117595076e-13       0.000000000000e+00       8.712757859102e-11       9.588600877334e-12      -7.360567441943e-15 
   40       1.654255546185e-10       7.697513140622e-15       2.362257721033e-13       0.000000000000e+00       8.274874266015e-11       9.165932814262e-12      -6.426779184843e-15 
   41       1.679062036477e-10       8.361681944774e-15       2.268774466665e-13       0.000000000000e+00       7.864791974179e-11       8.763719605859e-12      -5.966480550342e-15 
   42       1.704128188426e-10       9.061512245374e-15       2.161382799718e-13       0.000000000000e+00       7.481300074240e-11       8.381306654521e-12      -5.963934741443e-15 
   43       1.729471538106e-10       9.797651108824e-15       2.039529435793e-13       0.000000000000e+00       7.123377699035e-11       8.020003330662e-12      -6.276645286588e-15 
   44       1.755072846790e-10       1.057070434722e-14       1.902618490017e-13       0.000000000000e+00       6.788417083964e-11       7.680075092005e-12      -6.725622945278e-15 
   45       1.780895704988e-10       1.138123090836e-14       1.750075311989e-13       0.000000000000e+00       6.473154304631e-11       7.360975114778e-12      -7.134628905786e-15 
   46       1.806960697637e-10       1.222972870652e-14       1.581569816654e-13       0.000000000000e+00       6.177090954229e-11       7.062343586328e-12      -7.467209569372e-15 
   47       1.833287373783e-10       1.311664119132e-14       1.396853374455e-13       0.000000000000e+00       5.899880553850e-11       6.783147040381e-12      -7.726793310942e-15 
   48       1.859870859677e-10       1.404235848189e-14       1.195696972895e-13       0.000000000000e+00       5.640296576717e-11       6.521305116370e-12      -7.918879682637e-15 
   49       1.886679642848e-10       1.500721517989e-14       9.778912661940e-14       0.000000000000e+00       5.396167014259e-11       6.273615189033e-12      -8.051173999236e-15 
   50       1.913675465826e-10       1.601147202175e-14       7.432178290734e-14       0.000000000000e+00       5.165028151104e-11       6.036684380895e-12      -8.135474117087e-15 
   51       1.940884514251e-10       1.705526003790e-14       4.913536041616e-14       0.000000000000e+00       4.946446904765e-11       5.810198703053e-12      -8.193622302040e-15 
   52       1.968341721605e-10       1.813861745585e-14       2.219406037443e-14       0.000000000000e+00       4.740215752263e-11       5.594411003338e-12      -8.253401567893e-15 
   53       1.996069200826e-10       1.926150165860e-14      -6.538883573808e-15       0.000000000000e+00       4.545657776854e-11       5.389183839601e-12      -8.347136577096e-15 
   54       2.024075068836e-10       2.042378623719e-14      -3.710133591382e-14       0.000000000000e+00       4.361595079230e-11       5.193961515552e-12      -8.511910682315e-15 
   55       2.052359743258e-10       2.162531893035e-14      -6.952572117889e-14       0.000000000000e+00       4.186707890146e-11       5.008020165561e-12      -8.778106126629e-15 
   56       2.080939357252e-10       2.286611905136e-14      -1.038172086528e-13       0.000000000000e+00       4.020788744492e-11       4.831354824279e-12      -9.131193661695e-15 
   57       2.109826102486e-10       2.414622394347e-14      -1.399703369386e-13       0.000000000000e+00       3.863744540715e-11       4.663963742746e-12      -9.540830815776e-15 
   58       2.139020401472e-10       2.546563182701e-14      -1.779750813128e-13       0.000000000000e+00       3.715217126274e-11       4.505572888466e-12      -9.971474357068e-15 
   59       2.168510023210e-10       2.682430122410e-14      -2.178167244532e-13       0.000000000000e+00       3.574566930970e-11       4.355618814328e-12      -1.038214239339e-14 
   60       2.198269198841e-10       2.822215038341e-14      -2.594757271678e-13       0.000000000000e+00       3.440856600277e-11       4.213231527535e-12      -1.072617647187e-14 
   61       2.228270861797e-10       2.965897404304e-14      -3.029312815677e-13       0.000000000000e+00       3.313111150367e-11       4.077476668873e-12      -1.096199570348e-14 
   62       2.258528579463e-10       3.113417318821e-14      -3.481731950203e-13       0.000000000000e+00       3.191203696796e-11       3.948184328507e-12      -1.108871809127e-14 
   63       2.289062507067e-10       3.264696333791e-14      -3.951924564214e-13       0.000000000000e+00       3.075140398969e-11       3.825276714037e-12      -1.111814902104e-14 
   64       2.319886635050e-10       3.419644871931e-14      -4.439777769495e-13       0.000000000000e+00       2.964794039489e-11       3.708516529375e-12      -1.106460345493e-14 
   65       2.351008321151e-10       3.578161906974e-14      -4.945155776347e-13       0.000000000000e+00       2.859896431313e-11       3.597498071385e-12      -1.094501679973e-14 
   66       2.382427822482e-10       3.740134643856e-14      -5.467899769281e-13       0.000000000000e+00       2.760030824909e-11       3.491638326536e-12      -1.077905577524e-14 
   67       2.414137827609e-10       3.905438198916e-14      -6.007827782717e-13       0.000000000000e+00       2.664624315409e-11       3.390168067542e-12      -1.058922928256e-14 
   68       2.446129794468e-10       4.073947925086e-14      -6.564740535765e-13       0.000000000000e+00       2.573100778673e-11       3.292333042845e-12      -1.039650385283e-14 
   69       2.478415501311e-10       4.245580002389e-14      -7.138440587342e-13       0.000000000000e+00       2.485392636644e-11       3.198064785362e-12      -1.020587051084e-14 
   70       2.511009042021e-10       4.420258535421e-14      -7.728716856915e-13       0.000000000000e+00       2.401519625464e-11       3.107430357396e-12      -1.001803910955e-14 
   71       2.543920118054e-10       4.597903639600e-14      -8.335339036416e-13       0.000000000000e+00       2.321434016926e-11       3.020430817413e-12      -9.833670957880e-15 
   72       2.577153744588e-10       4.778431444755e-14      -8.958057618353e-13       0.000000000000e+00       2.245017131224e-11       2.936997689904e-12      -9.653374716601e-15 
   73       2.610709956656e-10       4.961754098726e-14      -9.596603923901e-13       0.000000000000e+00       2.172075849714e-11       2.856989435253e-12      -9.477702294349e-15 
   74       2.644583515295e-10       5.147779770959e-14      -1.025069013101e-12       0.000000000000e+00       2.102339127666e-11       2.780187919596e-12      -9.307144743562e-15 
   75       2.678763613683e-10       5.336412656098e-14      -1.092000930249e-12       0.000000000000e+00       2.035454507018e-11       2.706294884693e-12      -9.142128156440e-15 
   76       2.713239498907e-10       5.527547433438e-14      -1.160423159818e-12       0.000000000000e+00       1.971075569645e-11       2.635011385415e-12      -8.983140780180e-15 
   77       2.748019170378e-10       5.721051470892e-14      -1.230299205171e-12       0.000000000000e+00       1.909150417018e-11       2.566300629364e-12      -8.831150195869e-15 
   78       2.783113573118e-10       5.916779367291e-14      -1.301590060549e-12       0.000000000000e+00       1.849679704986e-11       2.500166876472e-12      -8.687255111397e-15 
   79       2.818530814871e-10       6.114578100313e-14      -1.374254567955e-12       0.000000000000e+00       1.792628773933e-11       2.436574924197e-12      -8.552559500647e-15 
   80       2.854275993548e-10       6.314286916398e-14      -1.448249412141e-12       0.000000000000e+00       1.737926026341e-11       2.375448278718e-12      -8.428171190209e-15 
   81       2.890351024669e-10       6.515737220655e-14      -1.523529115594e-12       0.000000000000e+00       1.685461304358e-11       2.316667326107e-12      -8.315200446095e-15 
   82       2.926754468815e-10       6.718752466769e-14      -1.600046033519e-12       0.000000000000e+00       1.635084267353e-11       2.260067503520e-12      -8.214758560453e-15 
   83       2.963481359068e-10       6.923148046906e-14      -1.677750348826e-12       0.000000000000e+00       1.586602769491e-11       2.205437470375e-12      -8.127956438291e-15 
   84       3.000526153839e-10       7.128738018546e-14      -1.756590830827e-12       0.000000000000e+00       1.539829535633e-11       2.152571140023e-12      -8.055462687648e-15 
   85       3.037892535744e-10       7.335356807423e-14      -1.836517266829e-12       0.000000000000e+00       1.494734633617e-11       2.101437691522e-12      -7.996096812610e-15 
   86       3.075584928354e-10       7.542840917350e-14      -1.917478426328e-12       0.000000000000e+00       1.451315421523e-11       2.052036520208e-12      -7.947999125965e-15 
   87       3.113605396998e-10       7.751022417935e-14      -1.999421340843e-12       0.000000000000e+00       1.409549697961e-11       2.004344973143e-12      -7.909041823288e-15 
   88       3.151953528735e-10       7.959728949397e-14      -2.082291311734e-12       0.000000000000e+00       1.369394891376e-11       1.958317425507e-12      -7.876820166360e-15 
   89       3.190626312325e-10       8.168783727377e-14      -2.166031918024e-12       0.000000000000e+00       1.330787249344e-11       1.913884357006e-12      -7.848643666575e-15 
   90       3.229618018207e-10       8.378005547756e-14      -2.250585024220e-12       0.000000000000e+00       1.293641027875e-11       1.870951428271e-12      -7.821527268358e-15 
   91       3.268920078468e-10       8.587208791464e-14      -2.335890788134e-12       0.000000000000e+00       1.257847680716e-11       1.829398557260e-12      -7.792182532576e-15 
   92       3.308520966821e-10       8.796203429298e-14      -2.421887668702e-12       0.000000000000e+00       1.223275048648e-11       1.789078995657e-12      -7.757008819950e-15 
   93       3.348409711950e-10       9.004797829724e-14      -2.508513163759e-12       0.000000000000e+00       1.189798703465e-11       1.749856166568e-12      -7.712914198092e-15 
   94       3.388587302717e-10       9.212807654888e-14      -2.595706133316e-12       0.000000000000e+00       1.157403133294e-11       1.711722521362e-12      -7.659938543929e-15 
   95       3.429056784363e-10       9.420048317690e-14      -2.683404841786e-12       0.000000000000e+00       1.126094347464e-11       1.674696934442e-12      -7.599010490780e-15 
   96       3.469819708765e-10       9.626332340724e-14      -2.771546276771e-12       0.000000000000e+00       1.095868713437e-11       1.638788134925e-12      -7.531155395197e-15 
   97       3.510876064279e-10       9.831469399565e-14      -2.860066166899e-12       0.000000000000e+00       1.066712587498e-11       1.603994301381e-12      -7.457497909852e-15 
   98       3.552224205595e-10       1.003526636606e-13      -2.948898999667e-12       0.000000000000e+00       1.038601945431e-11       1.570302656584e-12      -7.379264556433e-15 
   99       3.593860783579e-10       1.023752735162e-13      -3.037978039279e-12       0.000000000000e+00       1.011502013205e-11       1.537689062251e-12      -7.297786298537e-15 
  100       3.635780675124e-10       1.043805375052e-13      -3.127235344487e-12       0.000000000000e+00       9.853668976561e-12       1.506117613788e-12      -7.214501114564e-15 
  101       3.677976913000e-10       1.063664428314e-13      -3.216601786434e-12       0.000000000000e+00       9.601392171705e-12       1.475540235037e-12      -7.130956570608e-15 
  102       3.720440615699e-10       1.083309503935e-13      -3.306007066492e-12       0.000000000000e+00       9.357497323671e-12       1.445896273015e-12      -7.048812393351e-15 
  103       3.763160917285e-10       1.102719952170e-13      -3.395379734105e-12       0.000000000000e+00       9.121169767807e-12       1.417112092664e-12      -6.969843042959e-15 
  104       3.806127240901e-10       1.121875382541e-13      -3.484647783731e-12       0.000000000000e+00       8.891657184260e-12       1.389118399507e-12      -6.895559816165e-15 
  105       3.849336620148e-10       1.140757288184e-13      -3.573740499094e-12       0.000000000000e+00       8.668859801857e-12       1.361905745522e-12      -6.826013475928e-15 
  106       3.892787240538e-10       1.159347650017e-13      -3.662586892485e-12       0.000000000000e+00       8.452813408196e-12       1.335475800695e-12      -6.760833918124e-15 
  107       3.936476140294e-10       1.177628452525e-13      -3.751115171816e-12       0.000000000000e+00       8.243506556165e-12       1.309824086765e-12      -6.699594608855e-15 
