# dimensionless total lensed [l(l+1)/2pi] C_l's
# for l=2 to 2500, i.e. number of multipoles equal to 2499
#
# -> if you prefer output in CAMB/HealPix/LensPix units/order, set 'format' to 'camb' in input file
# -> if you don't want to see such a header, set 'headers' to 'no' in input file
# -> for CMB lensing (phi), these are C_l^phi-phi for the lensing potential.
#    Remember the conversion factors:
#    C_l^dd (deflection) = l(l+1) C_l^phi-phi
#    C_l^gg (shear/convergence) = 1/4 (l(l+1))^2 C_l^phi-phi
#
# 1:l     2:TT                     3:EE                     4:TE                     5:BB                     6:phiphi                 7:TPhi                   8:Ephi               
    2       1.370306054238e-10       4.143665079157e-15       3.535954341166e-13       2.240240947097e-19       8.184799063809e-09       4.433645735503e-10      -1.839660296191e-12 
    3       1.298320713933e-10       5.312877063405e-15       3.965053011589e-13       4.481411100166e-19       5.037781553336e-09       3.147086772479e-10      -1.394641020794e-12 
    4       1.229927260596e-10       4.600131167463e-15       3.705992317204e-13       7.471064767910e-19       3.506057233903e-09       2.381531739133e-10      -9.140295762121e-13 
    5       1.178757499530e-10       3.072594074865e-15       3.154857033121e-13       1.121038956910e-18       2.616761004344e-09       1.879758211340e-10      -5.092780097259e-13 
    6       1.143735840303e-10       1.719545218291e-15       2.539301594668e-13       1.570082711154e-18       2.043164165590e-09       1.528455259690e-10      -2.108679844401e-13 
    7       1.120934817123e-10       9.289144863452e-16       1.992322390487e-13       2.094404630919e-18       1.647060307865e-09       1.270573554163e-10      -2.031624616042e-14 
    8       1.107749247214e-10       5.984051999574e-16       1.572020413292e-13       2.694191320060e-18       1.359515994417e-09       1.075201245274e-10       7.715352504011e-14 
    9       1.101870137159e-10       4.802565030964e-16       1.291029879421e-13       3.369645816104e-18       1.143003083763e-09       9.241113500471e-11       1.047198662290e-13 
   10       1.100791641233e-10       4.104132403241e-16       1.135946525723e-13       4.120984146378e-18       9.756561277712e-10       8.047859415193e-11       8.813466743703e-14 
   11       1.104180693868e-10       3.467245174060e-16       1.080029867505e-13       4.948431817538e-18       8.233363282341e-10       7.117306596147e-11       5.148003076177e-14 
   12       1.110414108946e-10       3.040315492408e-16       1.092341406671e-13       5.852220336514e-18       7.190436655097e-10       6.291697372006e-11       1.218604473594e-14 
   13       1.118928441930e-10       2.931431954133e-16       1.146040852942e-13       6.832583857048e-18       6.334663714338e-10       5.623221529960e-11      -1.773442951476e-14 
   14       1.129641848194e-10       3.063302331444e-16       1.221134125122e-13       7.889756038932e-18       5.623010642916e-10       5.046610770456e-11      -3.401810094839e-14 
   15       1.142088174104e-10       3.321664219599e-16       1.303954392566e-13       9.023967197111e-18       5.024237203244e-10       4.558740351118e-11      -3.695508365475e-14 
   16       1.155507756402e-10       3.683518215057e-16       1.388301459026e-13       1.023544180532e-17       4.515350231735e-10       4.136894789860e-11      -3.039535549077e-14 
   17       1.170262782350e-10       4.202230809460e-16       1.472963980244e-13       1.152439640442e-17       4.078987650612e-10       3.768087225651e-11      -1.947082241509e-14 
   18       1.185801487507e-10       4.930135322231e-16       1.559090425521e-13       1.289103777395e-17       3.700400151370e-10       3.448458482526e-11      -9.026588820750e-15 
   19       1.202258094943e-10       5.870629995055e-16       1.648658052568e-13       1.433556261467e-17       3.373528039214e-10       3.172714216381e-11      -1.662993979442e-15 
   20       1.219544120290e-10       7.004577623147e-16       1.743522027663e-13       1.585815485746e-17       3.085740926302e-10       2.927318513690e-11       8.963283476449e-16 
   21       1.237588282471e-10       8.326067496491e-16       1.843529839843e-13       1.745898808966e-17       2.832491987230e-10       2.707431445816e-11      -7.887422655991e-16 
   22       1.256039702927e-10       9.830466501995e-16       1.947022618424e-13       1.913822260453e-17       2.607694468778e-10       2.508064495365e-11      -4.974085801718e-15 
   23       1.275037095769e-10       1.151898236113e-15       2.050363181354e-13       2.089600921366e-17       2.408240873567e-10       2.329671475394e-11      -9.906654807956e-15 
   24       1.294642604788e-10       1.339346793843e-15       2.148906618346e-13       2.273248624507e-17       2.229504451920e-10       2.171785548221e-11      -1.372213165182e-14 
   25       1.314776767125e-10       1.545820862662e-15       2.239941743350e-13       2.464778497962e-17       2.069370488191e-10       2.030549312331e-11      -1.562310880729e-14 
   26       1.335187294871e-10       1.771973757130e-15       2.321425152664e-13       2.664202603279e-17       1.924927844275e-10       1.900084173114e-11      -1.531817497643e-14 
   27       1.355940467107e-10       2.019492242374e-15       2.392517848115e-13       2.871532457027e-17       1.794434960802e-10       1.780413714172e-11      -1.342094784795e-14 
   28       1.377098856579e-10       2.290402242025e-15       2.452990496200e-13       3.086778783452e-17       1.675633573330e-10       1.672410154192e-11      -1.091409259844e-14 
   29       1.398733129000e-10       2.586163263443e-15       2.503240332404e-13       3.309952361550e-17       1.567912041232e-10       1.575535255780e-11      -8.421907145388e-15 
   30       1.420786180121e-10       2.908082707361e-15       2.544160164117e-13       3.541063319444e-17       1.470108597278e-10       1.487657680294e-11      -6.566757871052e-15 
   31       1.443096961100e-10       3.257410190874e-15       2.576712094646e-13       3.780121130887e-17       1.380221858595e-10       1.405853398530e-11      -5.926751029938e-15 
   32       1.465709265154e-10       3.635064978017e-15       2.600580752013e-13       4.027135678160e-17       1.297784187489e-10       1.329686043525e-11      -6.353844966317e-15 
   33       1.488652563490e-10       4.041792957947e-15       2.615014350791e-13       4.282116567964e-17       1.222209385244e-10       1.259003133049e-11      -7.388590245440e-15 
   34       1.511881735684e-10       4.478297805088e-15       2.619079870537e-13       4.545073001897e-17       1.152435867768e-10       1.193273588951e-11      -8.507779950317e-15 
   35       1.535390822376e-10       4.945486160928e-15       2.611376391322e-13       4.816014293894e-17       1.088104054875e-10       1.132463060127e-11      -9.413229037465e-15 
   36       1.559121079382e-10       5.444300621780e-15       2.590194294362e-13       5.094949545738e-17       1.028695316932e-10       1.076384417358e-11      -9.834989496595e-15 
   37       1.582976707085e-10       5.975628961097e-15       2.553949874170e-13       5.381887466199e-17       9.734335725627e-11       1.024572924094e-11      -9.548216820181e-15 
   38       1.607014983055e-10       6.540223428975e-15       2.502479553393e-13       5.676836181388e-17       9.221747763286e-11       9.767889439382e-12      -8.703157056241e-15 
   39       1.631307726811e-10       7.138748028451e-15       2.436178237761e-13       5.979803374594e-17       8.747553130280e-11       9.326261230533e-12      -7.607731108206e-15 
   40       1.655884040002e-10       7.771794144744e-15       2.355670788027e-13       6.290796344640e-17       8.307214849815e-11       8.913407773537e-12      -6.645484842984e-15 
   41       1.680742075626e-10       8.439916209492e-15       2.261567211057e-13       6.609821724177e-17       7.894873115202e-11       8.520950409488e-12      -6.175024129794e-15 
   42       1.705900916832e-10       9.143763881885e-15       2.153598780293e-13       6.936884510347e-17       7.509305171865e-11       8.148491048472e-12      -6.177193227803e-15 
   43       1.731357210065e-10       9.883985037336e-15       2.031224223344e-13       7.271988728325e-17       7.149479814300e-11       7.797121028409e-12      -6.501270790104e-15 
   44       1.757066121227e-10       1.066118728535e-14       1.893860496486e-13       7.615137677870e-17       6.812769120721e-11       7.466866148076e-12      -6.958193904289e-15 
   45       1.782967673220e-10       1.147593571796e-14       1.740939859880e-13       7.966333569760e-17       6.495885254978e-11       7.156967005799e-12      -7.362503714699e-15 
   46       1.809084172978e-10       1.232874983334e-14       1.572110485955e-13       8.325576338953e-17       6.198324271487e-11       6.867043135104e-12      -7.678710605465e-15 
   47       1.835445396662e-10       1.322010245791e-14       1.387089303050e-13       8.692864452436e-17       5.919735733629e-11       6.596115799676e-12      -7.914662523191e-15 
   48       1.862058912893e-10       1.415041814471e-14       1.185605974960e-13       9.068195194342e-17       5.658884145370e-11       6.342191952262e-12      -8.081214152841e-15 
   49       1.888907990333e-10       1.512007125172e-14       9.674025746526e-14       9.451564631629e-17       5.413583157642e-11       6.102191127084e-12      -8.192413281684e-15 
   50       1.915967485845e-10       1.612935430535e-14       7.322155422566e-14       9.842967581872e-17       5.181353157348e-11       5.872839041756e-12      -8.265688706769e-15 
   51       1.943261447579e-10       1.717837742546e-14       4.797165425429e-14       1.024239758602e-16       4.961757104044e-11       5.653803965234e-12      -8.322041723391e-15 
   52       1.970817530720e-10       1.826713827862e-14       2.095549898761e-14       1.064984686889e-16       4.754585001412e-11       5.445285310551e-12      -8.386228755510e-15 
   53       1.998649166783e-10       1.939554616571e-14      -7.862677159082e-15       1.106530630302e-16       4.559154931080e-11       5.247094372102e-12      -8.486946368653e-15 
   54       2.026754317336e-10       2.056341870186e-14      -3.851946278801e-14       1.148876537438e-16       4.374281300540e-11       5.058626710270e-12      -8.657017706500e-15 
   55       2.055124184341e-10       2.177055073547e-14      -7.104549466476e-14       1.192021296699e-16       4.198635959188e-11       4.879117524997e-12      -8.922940520511e-15 
   56       2.083774730181e-10       2.301694876039e-14      -1.054428965520e-13       1.235964002329e-16       4.032009339558e-11       4.708545331295e-12      -9.270063576379e-15 
   57       2.112720804941e-10       2.430264892146e-14      -1.417024388743e-13       1.280703748468e-16       3.874306994371e-11       4.546904405640e-12      -9.669085877659e-15 
   58       2.141966036164e-10       2.562764938297e-14      -1.798097893617e-13       1.326239552837e-16       3.725168089771e-11       4.393925236938e-12      -1.008571404776e-14 
   59       2.171501970501e-10       2.699190982317e-14      -2.197453605708e-13       1.372570356505e-16       3.583948959786e-11       4.249057936703e-12      -1.048043428316e-14 
   60       2.201307215355e-10       2.839535092870e-14      -2.614841574069e-13       1.419695023656e-16       3.449706660796e-11       4.111455649222e-12      -1.080828430655e-14 
   61       2.231358643891e-10       2.983777094043e-14      -3.050008248396e-13       1.467612492426e-16       3.321460496873e-11       3.980210774293e-12      -1.102927421221e-14 
   62       2.261669890922e-10       3.131857454485e-14      -3.502864599940e-13       1.516322267517e-16       3.199082397296e-11       3.855163126570e-12      -1.114289824762e-14 
   63       2.292260013996e-10       3.283698195541e-14      -3.973353203119e-13       1.565824038247e-16       3.082578120469e-11       3.736244562860e-12      -1.116100015288e-14 
   64       2.323141726352e-10       3.439210341619e-14      -4.461399686241e-13       1.616117541705e-16       2.971819443915e-11       3.623233778079e-12      -1.109791549706e-14 
   65       2.354320921326e-10       3.598293606441e-14      -4.966912856705e-13       1.667202567313e-16       2.866536538550e-11       3.515747736980e-12      -1.097058151262e-14 
   66       2.385796196763e-10       3.760836079305e-14      -5.489784826195e-13       1.719078961383e-16       2.766310342951e-11       3.413233105871e-12      -1.079864692996e-14 
   67       2.417558379422e-10       3.926713911343e-14      -6.029891135882e-13       1.771746631684e-16       2.670564937624e-11       3.314957684345e-12      -1.060458181189e-14 
   68       2.449597386301e-10       4.095803272264e-14      -6.587083380255e-13       1.825205631088e-16       2.578721192040e-11       3.220202597458e-12      -1.040928582911e-14 
   69       2.481925486119e-10       4.268019735236e-14      -7.161165063187e-13       1.879456418025e-16       2.490710903709e-11       3.128903246611e-12      -1.021763422734e-14 
   70       2.514557918508e-10       4.443286345465e-14      -7.751911052109e-13       1.934499657239e-16       2.406553616685e-11       3.041123436490e-12      -1.003018694748e-14 
   71       2.547505691349e-10       4.621522055894e-14      -8.359074581057e-13       1.990336151833e-16       2.326201128102e-11       2.956862733579e-12      -9.847425848593e-15 
   72       2.580775292831e-10       4.802641727285e-14      -8.982387184025e-13       2.046966849852e-16       2.249533987067e-11       2.876053032421e-12      -9.669749412999e-15 
   73       2.614368403500e-10       4.986556128302e-14      -9.621558628311e-13       2.104392850866e-16       2.176357993551e-11       2.798555121884e-12      -9.497467451400e-15 
   74       2.648281608316e-10       5.173171935587e-14      -1.027627684787e-12       2.162615412554e-16       2.106400697283e-11       2.724155251418e-12      -9.330795807965e-15 
   75       2.682506108705e-10       5.362391733846e-14      -1.094620787664e-12       2.221635957287e-16       2.039307896646e-11       2.652561697320e-12      -9.169851065440e-15 
   76       2.717032816614e-10       5.554108737196e-14      -1.163099640817e-12       2.281456007581e-16       1.974731476103e-11       2.583482442481e-12      -9.014815225658e-15 
   77       2.751869345626e-10       5.748189841718e-14      -1.233026773955e-12       2.342076964310e-16       1.912619149870e-11       2.516882159614e-12      -8.866476125173e-15 
   78       2.787025609511e-10       5.944489468245e-14      -1.304362606249e-12       2.403500299823e-16       1.852971439075e-11       2.452766069472e-12      -8.725776405112e-15 
   79       2.822508540387e-10       6.142854460517e-14      -1.377065381559e-12       2.465727630527e-16       1.795753418725e-11       2.391101242888e-12      -8.593650498162e-15 
   80       2.858321911134e-10       6.343123977019e-14      -1.451091163057e-12       2.528760722016e-16       1.740893089571e-11       2.331814830335e-12      -8.471022819147e-15 
   81       2.894466157813e-10       6.545129382815e-14      -1.526393827838e-12       2.592601494189e-16       1.688279749973e-11       2.274792291485e-12      -8.358805955624e-15 
   82       2.930938202078e-10       6.748694141384e-14      -1.602925061547e-12       2.657252026384e-16       1.637762367762e-11       2.219875624771e-12      -8.257898858461e-15 
   83       2.967731273596e-10       6.953633706462e-14      -1.680634352993e-12       2.722714562495e-16       1.589147952106e-11       2.166861596945e-12      -8.169185032429e-15 
   84       3.004838242797e-10       7.159762167564e-14      -1.759469908513e-12       2.788991481179e-16       1.542248408230e-11       2.115551704110e-12      -8.093177433519e-15 
   85       3.042262642937e-10       7.366913689314e-14      -1.839381581006e-12       2.856085189571e-16       1.497033592682e-11       2.065915449303e-12      -8.028889485773e-15 
   86       3.080009158164e-10       7.574924444516e-14      -1.920318418859e-12       2.923998221261e-16       1.453500764255e-11       2.017951012713e-12      -7.974772715281e-15 
   87       3.118080158803e-10       7.783626181734e-14      -2.002227799311e-12       2.992733274123e-16       1.411627555798e-11       1.971635039141e-12      -7.929045769733e-15 
   88       3.156475582772e-10       7.992846230643e-14      -2.085055438527e-12       3.062293214852e-16       1.371371160914e-11       1.926921736992e-12      -7.889686671300e-15 
   89       3.195192816991e-10       8.202407507365e-14      -2.168745401675e-12       3.132681083499e-16       1.332667520665e-11       1.883741977278e-12      -7.854425069519e-15 
   90       3.234226578800e-10       8.412128519817e-14      -2.253240113002e-12       3.203900098014e-16       1.295430510271e-11       1.842002392608e-12      -7.820734494179e-15 
   91       3.273568797367e-10       8.621823373054e-14      -2.338480365915e-12       3.275953658782e-16       1.259551125817e-11       1.801584476187e-12      -7.785824608206e-15 
   92       3.313208495105e-10       8.831301774616e-14      -2.424405333050e-12       3.348845353158e-16       1.224896670947e-11       1.762343680812e-12      -7.746633460544e-15 
   93       3.353135192674e-10       9.040371864235e-14      -2.510953096662e-12       3.422579034740e-16       1.191342213313e-11       1.724145867487e-12      -7.700515637879e-15 
   94       3.393349967369e-10       9.248849178210e-14      -2.598062309117e-12       3.497159064943e-16       1.158872132278e-11       1.686984879016e-12      -7.647441938560e-15 
   95       3.433855846400e-10       9.456549049430e-14      -2.685670801930e-12       3.572590116318e-16       1.127492411350e-11       1.650881065900e-12      -7.588117745526e-15 
   96       3.474654362214e-10       9.663283946658e-14      -2.773715104700e-12       3.648877106543e-16       1.097199363906e-11       1.615845129211e-12      -7.523318386351e-15 
   97       3.515745482276e-10       9.868863518648e-14      -2.862130462327e-12       3.726025203994e-16       1.067979262848e-11       1.581877732276e-12      -7.453890938621e-15 
   98       3.557127538854e-10       1.007309463826e-13      -2.950850852233e-12       3.804039833303e-16       1.039807970276e-11       1.548969112369e-12      -7.380756035303e-15 
   99       3.598797158794e-10       1.027578144655e-13      -3.039809001582e-12       3.882926680924e-16       1.012650567140e-11       1.517098692396e-12      -7.304909670122e-15 
  100       3.640749193307e-10       1.047672539694e-13      -3.128936404495e-12       3.962691700698e-16       9.864609829141e-12       1.486234692589e-12      -7.227425002934e-15 
  101       3.682976647745e-10       1.067572529927e-13      -3.218163339275e-12       4.043341119415e-16       9.611816252516e-12       1.456333742186e-12      -7.149454165100e-15 
  102       3.725470611384e-10       1.087257736395e-13      -3.307418885619e-12       4.124881442378e-16       9.367430096522e-12       1.427340491129e-12      -7.072230064858e-15 
  103       3.768220187206e-10       1.106707524604e-13      -3.396630941842e-12       4.207319458969e-16       9.130633891243e-12       1.399187221745e-12      -6.997068192700e-15 
  104       3.811214745914e-10       1.125901527589e-13      -3.485726916806e-12       4.290662050436e-16       8.900672721547e-12       1.371809826799e-12      -6.925093410123e-15 
  105       3.854451185994e-10       1.144821286065e-13      -3.574635875070e-12       4.374915571719e-16       8.677446231843e-12       1.345199038164e-12      -6.856374394900e-15 
  106       3.897927528039e-10       1.163448839089e-13      -3.663286714970e-12       4.460086396100e-16       8.460990060695e-12       1.319355426691e-12      -6.790675093400e-15 
  107       3.941640633955e-10       1.181766235185e-13      -3.751607544117e-12       4.546181108874e-16       8.251292490973e-12       1.294273447866e-12      -6.727718093970e-15 
