# dimensionless total [l(l+1)/2pi] C_l's
# for l=2 to 3000, i.e. number of multipoles equal to 2999
#
# -> if you prefer output in CAMB/HealPix/LensPix units/order, set 'format' to 'camb' in input file
# -> if you don't want to see such a header, set 'headers' to 'no' in input file
# -> for CMB lensing (phi), these are C_l^phi-phi for the lensing potential.
#    Remember the conversion factors:
#    C_l^dd (deflection) = l(l+1) C_l^phi-phi
#    C_l^gg (shear/convergence) = 1/4 (l(l+1))^2 C_l^phi-phi
#
# 1:l     2:TT                     3:EE                     4:TE                     5:BB                     6:phiphi                 7:TPhi                   8:Ephi               
    2       1.376046594167e-10       4.142179748211e-15       3.539652173647e-13       0.000000000000e+00       8.166939555630e-09       4.437978444228e-10      -1.837460712757e-12 
    3       1.303773176906e-10       5.310374065829e-15       3.967575910176e-13       0.000000000000e+00       5.016739482194e-09       3.153432707730e-10      -1.392291176299e-12 
    4       1.234928495336e-10       4.597445576670e-15       3.708328292659e-13       0.000000000000e+00       3.489748427125e-09       2.389570550701e-10      -9.118842104015e-13 
    5       1.183252008153e-10       3.070429393921e-15       3.158362616815e-13       0.000000000000e+00       2.604385530396e-09       1.888534959296e-10      -5.073432662234e-13 
    6       1.147772910261e-10       1.717920945441e-15       2.544527998534e-13       0.000000000000e+00       2.033612685910e-09       1.537551036466e-10      -2.091394538691e-13 
    7       1.124565733138e-10       9.275248478476e-16       1.998916709387e-13       0.000000000000e+00       1.639634662851e-09       1.279800580516e-10      -1.872643140760e-14 
    8       1.110995216342e-10       5.968480710032e-16       1.579019394227e-13       0.000000000000e+00       1.353687059278e-09       1.084321653171e-10       7.866998539504e-14 
    9       1.104721422018e-10       4.780824885368e-16       1.297259076709e-13       0.000000000000e+00       1.138424134024e-09       9.328717900314e-11       1.062043659239e-13 
   10       1.103349978738e-10       4.071518533720e-16       1.140440105388e-13       0.000000000000e+00       9.720065149057e-10       8.130728573554e-11       8.959948154999e-14 
   11       1.106448679048e-10       3.419983362044e-16       1.082353815867e-13       0.000000000000e+00       8.199553071522e-10       7.194932780789e-11       5.290193198676e-14 
   12       1.112408839191e-10       2.976892982751e-16       1.092765769821e-13       0.000000000000e+00       7.161587080600e-10       6.366900353881e-11       1.356266868292e-14 
   13       1.120746606011e-10       2.852816004629e-16       1.145182332858e-13       0.000000000000e+00       6.309868414197e-10       5.695406728244e-11      -1.643736153050e-14 
   14       1.131172987935e-10       2.971926780796e-16       1.219691941336e-13       0.000000000000e+00       5.601550766557e-10       5.113209521409e-11      -3.284987947415e-14 
   15       1.143407532469e-10       3.219913273914e-16       1.302724799670e-13       0.000000000000e+00       5.005557412303e-10       4.621756170930e-11      -3.590154298946e-14 
   16       1.156643486174e-10       3.572466245153e-16       1.387885933675e-13       0.000000000000e+00       4.499007888504e-10       4.196882110094e-11      -2.945002350663e-14 
   17       1.171272402162e-10       4.081333746378e-16       1.473469132489e-13       0.000000000000e+00       4.064625161841e-10       3.825320246103e-11      -1.861686340098e-14 
   18       1.186656132224e-10       4.797510866465e-16       1.560414004932e-13       0.000000000000e+00       3.687730679383e-10       3.502491674852e-11      -8.245657624775e-15 
   19       1.202916072221e-10       5.723961409029e-16       1.650518472932e-13       0.000000000000e+00       3.362301069612e-10       3.223355727667e-11      -9.388459940999e-16 
   20       1.219997989280e-10       6.841488892916e-16       1.745463944564e-13       0.000000000000e+00       3.075763478217e-10       2.975056264881e-11       1.576306633038e-15 
   21       1.237871485894e-10       8.144432240343e-16       1.845208847316e-13       0.000000000000e+00       2.823595236229e-10       2.752760890867e-11      -1.442345450418e-16 
   22       1.256218586077e-10       9.628690316257e-16       1.948324812957e-13       0.000000000000e+00       2.599741117238e-10       2.551160396316e-11      -4.362035898494e-15 
   23       1.275134883972e-10       1.129629099956e-15       2.051280817429e-13       0.000000000000e+00       2.401110173247e-10       2.370306201117e-11      -9.329629055277e-15 
   24       1.294623965764e-10       1.314995403538e-15       2.149522159295e-13       0.000000000000e+00       2.223097988773e-10       2.209447500732e-11      -1.318834722478e-14 
   25       1.314649674161e-10       1.519389988784e-15       2.240481696893e-13       0.000000000000e+00       2.063601168911e-10       2.065545927063e-11      -1.514111313609e-14 
   26       1.335020582595e-10       1.743424946963e-15       2.322237227591e-13       0.000000000000e+00       1.919722985710e-10       1.933668216848e-11      -1.489315966940e-14 
   27       1.355746846884e-10       1.988756953087e-15       2.393800191415e-13       0.000000000000e+00       1.789730632434e-10       1.813034149814e-11      -1.304623578542e-14 
   28       1.376806452401e-10       2.257383352092e-15       2.454710154843e-13       0.000000000000e+00       1.671376395134e-10       1.703274541093e-11      -1.057048251358e-14 
   29       1.398282273944e-10       2.550747773899e-15       2.505315978675e-13       0.000000000000e+00       1.564052302909e-10       1.604038657052e-11      -8.094938743645e-15 
   30       1.420168420107e-10       2.870143847260e-15       2.546520779063e-13       0.000000000000e+00       1.466602353402e-10       1.513944722510e-11      -6.254560144912e-15 
   31       1.442354142336e-10       3.216809604625e-15       2.579300538915e-13       0.000000000000e+00       1.377034199895e-10       1.430775315032e-11      -5.639826712529e-15 
   32       1.464875281672e-10       3.591670843522e-15       2.603343918346e-13       0.000000000000e+00       1.294882831638e-10       1.353878310265e-11      -6.099876419866e-15 
   33       1.487730504005e-10       3.995488600830e-15       2.617902314897e-13       0.000000000000e+00       1.219564948246e-10       1.282501107370e-11      -7.166512718811e-15 
   34       1.510846372775e-10       4.428984207644e-15       2.622057681597e-13       0.000000000000e+00       1.150023648087e-10       1.215538084661e-11      -8.308344609352e-15 
   35       1.534229985851e-10       4.893076233893e-15       2.614466777339e-13       0.000000000000e+00       1.085901335168e-10       1.153086183086e-11      -9.229229857302e-15 
   36       1.557852032969e-10       5.388719171728e-15       2.593501826677e-13       0.000000000000e+00       1.026681923379e-10       1.095355674877e-11      -9.665283454810e-15 
   37       1.581643486069e-10       5.916810653137e-15       2.557649392901e-13       0.000000000000e+00       9.715927786049e-11       1.042267663962e-11      -9.397334304658e-15 
   38       1.605654007766e-10       6.478095941595e-15       2.506705980460e-13       0.000000000000e+00       9.204907575305e-11       9.935968411419e-12      -8.574121604905e-15 
   39       1.629934543163e-10       7.073224957138e-15       2.440981646140e-13       0.000000000000e+00       8.732131025707e-11       9.488215932870e-12      -7.499432930046e-15 
   40       1.654488117653e-10       7.702771581848e-15       2.360996204587e-13       0.000000000000e+00       8.293079585538e-11       9.070464801942e-12      -6.551802780864e-15 
   41       1.679289149675e-10       8.367274859315e-15       2.267263702432e-13       0.000000000000e+00       7.881916298273e-11       8.672827300872e-12      -6.085501044764e-15 
   42       1.704361726603e-10       9.067390485481e-15       2.159530962613e-13       0.000000000000e+00       7.497425298335e-11       8.294732878838e-12      -6.083109302439e-15 
   43       1.729717864684e-10       9.803780397678e-15       2.037312513023e-13       0.000000000000e+00       7.138581452117e-11       7.937498219757e-12      -6.397985470285e-15 
   44       1.755331525041e-10       1.057706924590e-14       1.900094455687e-13       0.000000000000e+00       6.802768163263e-11       7.601412382266e-12      -6.846087836494e-15 
   45       1.781159952264e-10       1.138783743706e-14       1.747376003305e-13       0.000000000000e+00       6.486710892551e-11       7.285959994263e-12      -7.246676802919e-15 
   46       1.807223843117e-10       1.223660186334e-14       1.578816025360e-13       0.000000000000e+00       6.189909008181e-11       6.990789119711e-12      -7.564371670870e-15 
   47       1.833544976495e-10       1.312382647055e-14       1.394125167843e-13       0.000000000000e+00       5.912014462300e-11       6.714874868253e-12      -7.805635546451e-15 
   48       1.860121197369e-10       1.404992500648e-14       1.193024648459e-13       0.000000000000e+00       5.651796774121e-11       6.456155832005e-12      -7.979615294310e-15 
   49       1.886924228167e-10       1.501525899047e-14       9.752457979477e-14       0.000000000000e+00       5.407077422606e-11       6.211459472294e-12      -8.098309576527e-15 
   50       1.913918727289e-10       1.602011102799e-14       7.405140152653e-14       0.000000000000e+00       5.175385425225e-11       5.977424244004e-12      -8.177281401738e-15 
   51       1.941130640994e-10       1.706460092570e-14       4.884965628726e-14       0.000000000000e+00       4.956286068376e-11       5.753734151226e-12      -8.237633938022e-15 
   52       1.968593621695e-10       1.814874329703e-14       2.188398082225e-14       0.000000000000e+00       4.749570878250e-11       5.540633201567e-12      -8.304861477605e-15 
   53       1.996328241834e-10       1.927246711212e-14      -6.881759244401e-15       0.000000000000e+00       4.554560763599e-11       5.337978354308e-12      -8.408540869135e-15 
   54       2.024340805124e-10       2.043561250714e-14      -3.748458862362e-14       0.000000000000e+00       4.370074346587e-11       5.145211812436e-12      -8.582525180585e-15 
   55       2.052630068459e-10       2.163799463587e-14      -6.995568710154e-14       0.000000000000e+00       4.194788033629e-11       4.961609824284e-12      -8.854215185798e-15 
   56       2.081212086435e-10       2.287962110895e-14      -1.042979513035e-13       0.000000000000e+00       4.028493526891e-11       4.787164943546e-12      -9.208809137960e-15 
   57       2.110099456535e-10       2.416052298251e-14      -1.405030676030e-13       0.000000000000e+00       3.871097234651e-11       4.621874408907e-12      -9.616511088143e-15 
   58       2.139293087833e-10       2.548069188248e-14      -1.785577335974e-13       0.000000000000e+00       3.722239851819e-11       4.465466270705e-12      -1.004244812209e-14 
   59       2.168781320435e-10       2.684007942594e-14      -2.184435102645e-13       0.000000000000e+00       3.581279953387e-11       4.317382456065e-12      -1.044643848376e-14 
   60       2.198539044934e-10       2.823859664250e-14      -2.601366741190e-13       0.000000000000e+00       3.447277587888e-11       4.176761834030e-12      -1.078275969890e-14 
   61       2.228539782994e-10       2.967603349917e-14      -3.036129272242e-13       0.000000000000e+00       3.319255101696e-11       4.042679756266e-12      -1.101073166720e-14 
   62       2.258797089846e-10       3.115179767582e-14      -3.488630971065e-13       0.000000000000e+00       3.197085141348e-11       3.914967821182e-12      -1.112976640468e-14 
   63       2.289330924766e-10       3.266511586141e-14      -3.958807145421e-13       0.000000000000e+00       3.080773766276e-11       3.793548900848e-12      -1.115180992719e-14 
   64       2.320155049989e-10       3.421510542446e-14      -4.446574728348e-13       0.000000000000e+00       2.970193346982e-11       3.678188279516e-12      -1.109133057695e-14 
   65       2.351276561405e-10       3.580077129933e-14      -4.951832341092e-13       0.000000000000e+00       2.865074954814e-11       3.568484856528e-12      -1.096543029680e-14 
   66       2.382695419257e-10       3.742100287253e-14      -5.474460356025e-13       0.000000000000e+00       2.765000751748e-11       3.463862349229e-12      -1.079395590459e-14 
   67       2.414403978837e-10       3.907457086907e-14      -6.014320959575e-13       0.000000000000e+00       2.669396380160e-11       3.363560495872e-12      -1.059961036752e-14 
   68       2.446393431796e-10       4.076024588261e-14      -6.571254004342e-13       0.000000000000e+00       2.577684261855e-11       3.266834126130e-12      -1.040351951007e-14 
   69       2.478675694708e-10       4.247718881562e-14      -7.145063448828e-13       0.000000000000e+00       2.489796576575e-11       3.173616876827e-12      -1.021064027956e-14 
   70       2.511265133012e-10       4.422463432260e-14      -7.735528270455e-13       0.000000000000e+00       2.405753032692e-11       3.083976776930e-12      -1.002158212436e-14 
   71       2.544171755499e-10       4.600177616357e-14      -8.342406389296e-13       0.000000000000e+00       2.325505722538e-11       2.997916860850e-12      -9.836885089245e-15 
   72       2.577400921760e-10       4.780776720152e-14      -8.965434623307e-13       0.000000000000e+00       2.248935627518e-11       2.915371687666e-12      -9.657014860432e-15 
   73       2.610953049618e-10       4.964171939976e-14      -9.604328643557e-13       0.000000000000e+00       2.175849123205e-11       2.836203860338e-12      -9.482357810615e-15 
   74       2.644823322572e-10       5.150270381934e-14      -1.025878292946e-12       0.000000000000e+00       2.105974484449e-11       2.760200544924e-12      -9.313216043959e-15 
   75       2.679001397234e-10       5.338975061649e-14      -1.092847072402e-12       0.000000000000e+00       2.038958390478e-11       2.687069989793e-12      -9.149802441126e-15 
   76       2.713476914879e-10       5.530179593247e-14      -1.161304424103e-12       0.000000000000e+00       1.974453580013e-11       2.616519449075e-12      -8.992401381906e-15 
   77       2.748257843123e-10       5.723751138789e-14      -1.231213542936e-12       0.000000000000e+00       1.912407995890e-11       2.548513052292e-12      -8.841895702598e-15 
   78       2.783354962954e-10       5.919544334669e-14      -1.302535526736e-12       0.000000000000e+00       1.852822262805e-11       2.483054853088e-12      -8.699327276096e-15 
   79       2.818776190610e-10       6.117406219139e-14      -1.375229348426e-12       0.000000000000e+00       1.795661615420e-11       2.420109814445e-12      -8.565738326645e-15 
   80       2.854526404033e-10       6.317176123148e-14      -1.449251852062e-12       0.000000000000e+00       1.740854272572e-11       2.359601997163e-12      -8.442169872210e-15 
   81       2.890607269326e-10       6.518685561180e-14      -1.524557748866e-12       0.000000000000e+00       1.688289811483e-11       2.301412748333e-12      -8.329660166848e-15 
   82       2.927017067213e-10       6.721758122097e-14      -1.601099613270e-12       0.000000000000e+00       1.637817541965e-11       2.245378889815e-12      -8.229243143076e-15 
   83       2.963750519496e-10       6.926209359974e-14      -1.678827878957e-12       0.000000000000e+00       1.589244880629e-11       2.191290906712e-12      -8.141946854243e-15 
   84       3.000801798927e-10       7.131853462351e-14      -1.757691549670e-12       0.000000000000e+00       1.542384126805e-11       2.138944472399e-12      -8.068382443664e-15 
   85       3.038174512296e-10       7.338524764232e-14      -1.837640475731e-12       0.000000000000e+00       1.497205261239e-11       2.088308805995e-12      -8.007436172387e-15 
   86       3.075873061841e-10       7.546059617091e-14      -1.918623449416e-12       0.000000000000e+00       1.453705615150e-11       2.039383033422e-12      -7.957356693333e-15 
   87       3.113899490706e-10       7.754289933252e-14      -2.000587531670e-12       0.000000000000e+00       1.411862920373e-11       1.992144430758e-12      -7.916136930361e-15 
   88       3.152253362904e-10       7.963043190627e-14      -2.083478060163e-12       0.000000000000e+00       1.371634497036e-11       1.946547509123e-12      -7.881505638740e-15 
   89       3.190931643270e-10       8.172142437469e-14      -2.167238657337e-12       0.000000000000e+00       1.332956441247e-11       1.902523099571e-12      -7.850918965614e-15 
   90       3.229928577426e-10       8.381406297110e-14      -2.251811238466e-12       0.000000000000e+00       1.295742812778e-11       1.859977437978e-12      -7.821552010466e-15 
   91       3.269235571742e-10       8.590648972714e-14      -2.337136019705e-12       0.000000000000e+00       1.259884822740e-11       1.818791249929e-12      -7.790290385590e-15 
   92       3.308841073292e-10       8.799680252016e-14      -2.423151526141e-12       0.000000000000e+00       1.225250021271e-11       1.778818835608e-12      -7.753721776553e-15 
   93       3.348734097704e-10       9.008308326750e-14      -2.509795305407e-12       0.000000000000e+00       1.191713707079e-11       1.739924768373e-12      -7.708910745647e-15 
   94       3.388915680373e-10       9.216348725669e-14      -2.597006173777e-12       0.000000000000e+00       1.159260324251e-11       1.702102291878e-12      -7.655874772766e-15 
   95       3.429388933585e-10       9.423616740077e-14      -2.684722324344e-12       0.000000000000e+00       1.127895884600e-11       1.665371120791e-12      -7.595466740186e-15 
   96       3.470155483054e-10       9.629924771662e-14      -2.772880669064e-12       0.000000000000e+00       1.097616739552e-11       1.629741020297e-12      -7.528627151791e-15 
   97       3.511215397958e-10       9.835082375878e-14      -2.861416856491e-12       0.000000000000e+00       1.068409210142e-11       1.595211407297e-12      -7.456386444992e-15 
   98       3.552567120972e-10       1.003889630532e-13      -2.950265289521e-12       0.000000000000e+00       1.040249216992e-11       1.561770951615e-12      -7.379867302638e-15 
   99       3.594207398306e-10       1.024117055313e-13      -3.039359143124e-12       0.000000000000e+00       1.013101910304e-11       1.529397177208e-12      -7.300286964934e-15 
  100       3.636131209731e-10       1.044170639635e-13      -3.128630382085e-12       0.000000000000e+00       9.869212998434e-12       1.498056063365e-12      -7.218959541354e-15 
  101       3.678331698621e-10       1.064030243931e-13      -3.218009778743e-12       0.000000000000e+00       9.616498849233e-12       1.467701645917e-12      -7.137298322557e-15 
  102       3.720800101981e-10       1.083675465703e-13      -3.307426930725e-12       0.000000000000e+00       9.372182843952e-12       1.438275618443e-12      -7.056818092299e-15 
  103       3.763525680485e-10       1.103085643858e-13      -3.396810278689e-12       0.000000000000e+00       9.135448666325e-12       1.409706933470e-12      -6.979137439353e-15 
  104       3.806497961410e-10       1.122240377482e-13      -3.486087718711e-12       0.000000000000e+00       8.905542470336e-12       1.381928470106e-12      -6.905636416223e-15 
  105       3.849713963206e-10       1.141121152621e-13      -3.575188495476e-12       0.000000000000e+00       8.682364232507e-12       1.354930460092e-12      -6.836371867919e-15 
  106       3.893171820969e-10       1.159709944369e-13      -3.664041599090e-12       0.000000000000e+00       8.465949756449e-12       1.328713568961e-12      -6.771019207871e-15 
  107       3.936868516673e-10       1.177988731922e-13      -3.752575217245e-12       0.000000000000e+00       8.256287523993e-12       1.303272265386e-12      -6.709202529124e-15 
