# dimensionless total lensed [l(l+1)/2pi] C_l's
# for l=2 to 2500, i.e. number of multipoles equal to 2499
#
# -> if you prefer output in CAMB/HealPix/LensPix units/order, set 'format' to 'camb' in input file
# -> if you don't want to see such a header, set 'headers' to 'no' in input file
# -> for CMB lensing (phi), these are C_l^phi-phi for the lensing potential.
#    Remember the conversion factors:
#    C_l^dd (deflection) = l(l+1) C_l^phi-phi
#    C_l^gg (shear/convergence) = 1/4 (l(l+1))^2 C_l^phi-phi
#
# 1:l     2:TT                     3:EE                     4:TE                     5:BB                     6:phiphi                 7:TPhi                   8:Ephi               
    2       1.376332857918e-10       4.142562225168e-15       3.538186148264e-13       2.241001690843e-19       8.160061735203e-09       4.444072229726e-10      -1.837610249786e-12 
    3       1.304049474358e-10       5.311334364536e-15       3.966403738833e-13       4.482929717581e-19       5.015707340994e-09       3.158744704528e-10      -1.392644093064e-12 
    4       1.235176337879e-10       4.598914764537e-15       3.707509641807e-13       7.473589523193e-19       3.489652037983e-09       2.393876006015e-10      -9.122841757567e-13 
    5       1.183483305691e-10       3.072108135189e-15       3.157474243042e-13       1.121416518551e-18       2.604431581427e-09       1.892063338335e-10      -5.077554111430e-13 
    6       1.147982367431e-10       1.719681478722e-15       2.543248663087e-13       1.570609412217e-18       2.033694569713e-09       1.540432634341e-10      -2.095358486887e-13 
    7       1.124752050836e-10       9.294345703380e-16       1.997220668223e-13       2.095104055059e-18       1.639620143998e-09       1.282119503399e-10      -1.910571965818e-14 
    8       1.111179113004e-10       5.991161736238e-16       1.577118019296e-13       2.695086546411e-18       1.353594406366e-09       1.086189781698e-10       7.830196465262e-14 
    9       1.104925232530e-10       4.809783236949e-16       1.295478780333e-13       3.370759401027e-18       1.138344175378e-09       9.344147248727e-11       1.058412186853e-13 
   10       1.103552847785e-10       4.109359263813e-16       1.139096476632e-13       4.122338121979e-18       9.719041180316e-10       8.143742366656e-11       8.923800009209e-14 
   11       1.106666847139e-10       3.468657233749e-16       1.081629020449e-13       4.950047706437e-18       8.199299395074e-10       7.206085988212e-11       5.254579459906e-14 
   12       1.112645181405e-10       3.037373613401e-16       1.092627841310e-13       5.854119181699e-18       7.161346769351e-10       6.375757821990e-11       1.320902814699e-14 
   13       1.120990414598e-10       2.925168918141e-16       1.145474484248e-13       6.834786265023e-18       6.309629568284e-10       5.702447806175e-11      -1.678072316405e-14 
   14       1.131462775372e-10       3.055687779045e-16       1.220203279972e-13       7.892282233881e-18       5.601311136090e-10       5.119524447336e-11      -3.316887015492e-14 
   15       1.143733422713e-10       3.314605888120e-16       1.303186656204e-13       9.026837083358e-18       5.005313413128e-10       4.627014680964e-11      -3.619851411197e-14 
   16       1.156995600862e-10       3.678067177740e-16       1.388083152141e-13       1.023867503509e-17       4.498758324138e-10       4.201093078898e-11      -2.972333356869e-14 
   17       1.171646891889e-10       4.198424563587e-16       1.473334570883e-13       1.152801244773e-17       4.064369414498e-10       3.828568426496e-11      -1.886744271009e-14 
   18       1.187062883916e-10       4.927217765683e-16       1.559946379311e-13       1.289505598902e-17       3.687469460532e-10       3.505122121199e-11      -8.475705034349e-15 
   19       1.203368104757e-10       5.867623265359e-16       1.649781427157e-13       1.434000230635e-17       3.362034719716e-10       3.225616390399e-11      -1.151105895621e-15 
   20       1.220504086412e-10       7.000513245989e-16       1.744590020666e-13       1.586303534590e-17       3.075493103915e-10       2.976911492629e-11       1.378642926639e-15 
   21       1.238427633053e-10       8.320114807093e-16       1.844312183405e-13       1.746432874688e-17       2.823321944388e-10       2.754160405021e-11      -3.303003438245e-16 
   22       1.256807892007e-10       9.822086993642e-16       1.947462612360e-13       1.914404290332e-17       2.599465782562e-10       2.552144878788e-11      -4.538581497431e-15 
   23       1.275753601100e-10       1.150814929417e-15       2.050471918119e-13       2.090232873987e-17       2.400833590809e-10       2.371039917864e-11      -9.497072856816e-15 
   24       1.295286602572e-10       1.338070572092e-15       2.148745724011e-13       2.273932472226e-17       2.222820925254e-10       2.210174761482e-11      -1.334505736692e-14 
   25       1.315356251879e-10       1.544399134264e-15       2.239674191933e-13       2.465516225312e-17       2.063324262697e-10       2.066261457709e-11      -1.528477021792e-14 
   26       1.335750650572e-10       1.770426282249e-15       2.321300723040e-13       2.664996206825e-17       1.919446739768e-10       1.934070285125e-11      -1.502177996262e-14 
   27       1.356496753297e-10       2.017817790368e-15       2.392669436957e-13       2.872383941824e-17       1.789455515427e-10       1.813045184188e-11      -1.316118699525e-14 
   28       1.377598528234e-10       2.288579706578e-15       2.453374047073e-13       3.087690160528e-17       1.671102884518e-10       1.703169471412e-11      -1.067685443481e-14 
   29       1.399135616841e-10       2.584161983103e-15       2.503779689008e-13       3.310925642090e-17       1.563780830858e-10       1.604043758584e-11      -8.196482877873e-15 
   30       1.421087122862e-10       2.905864866516e-15       2.544795112135e-13       3.542100510772e-17       1.466333308153e-10       1.514075556168e-11      -6.351417793517e-15 
   31       1.443327448338e-10       3.254932135387e-15       2.577401817615e-13       3.781224232797e-17       1.376767940166e-10       1.430842776641e-11      -5.728639964512e-15 
   32       1.465894626154e-10       3.632286332851e-15       2.601291082085e-13       4.028306678371e-17       1.294619661449e-10       1.353742466780e-11      -6.178311756205e-15 
   33       1.488796106620e-10       4.038681136180e-15       2.615715679031e-13       4.283357437254e-17       1.219305121655e-10       1.282172263303e-11      -7.235061688634e-15 
   34       1.511966438810e-10       4.474829690927e-15       2.619754646686e-13       4.546385690234e-17       1.149767379937e-10       1.215169525241e-11      -8.370137440388e-15 
   35       1.535408754531e-10       4.941646233542e-15       2.612044689767e-13       4.817400731078e-17       1.085648787565e-10       1.152802596410e-11      -9.286726319419e-15 
   36       1.559084980263e-10       5.440081622115e-15       2.590928616007e-13       5.096411638402e-17       1.026433211686e-10       1.095187515535e-11      -9.718968647152e-15 
   37       1.582918085152e-10       5.971030371836e-15       2.554867203727e-13       5.383427096843e-17       9.713479841833e-11       1.042152161848e-11      -9.445822697134e-15 
   38       1.606959951404e-10       6.535238858674e-15       2.503669265160e-13       5.678455219738e-17       9.202499347490e-11       9.934650466502e-12      -8.616399422445e-15 
   39       1.631267658429e-10       7.133359906466e-15       2.437672396864e-13       5.981503680397e-17       8.729762929003e-11       9.486272959350e-12      -7.535664317007e-15 
   40       1.655851872595e-10       7.765971175231e-15       2.357430499423e-13       6.292579767071e-17       8.290752085791e-11       9.067726503596e-12      -6.583583689905e-15 
   41       1.680693974257e-10       8.433614939665e-15       2.263488742987e-13       6.611690106215e-17       7.879629978686e-11       8.669411945501e-12      -6.115680782890e-15 
   42       1.705816687238e-10       9.136944617899e-15       2.155588855475e-13       6.938839710185e-17       7.495180494693e-11       8.290804127830e-12      -6.114108146688e-15 
   43       1.731227659493e-10       9.876617807287e-15       2.033227186861e-13       7.274032629171e-17       7.136378210058e-11       7.933191095823e-12      -6.431152982904e-15 
   44       1.756895488419e-10       1.065325405506e-14       1.895867313149e-13       7.617272193457e-17       6.800606325291e-11       7.596823912105e-12      -6.881452053950e-15 
   45       1.782772452688e-10       1.146742905848e-14       1.742986979061e-13       7.968560653047e-17       6.484590165186e-11       7.281149032349e-12      -7.283013947947e-15 
   46       1.808879498236e-10       1.231965937268e-14       1.574243410725e-13       8.327898000905e-17       6.187828939918e-11       6.985808427570e-12      -7.600387360211e-15 
   47       1.835240389449e-10       1.321041011736e-14       1.389351831164e-13       8.695282774212e-17       5.909974500321e-11       6.709779542612e-12      -7.840341056475e-15 
   48       1.861855388423e-10       1.414009665631e-14       1.188039134418e-13       9.070712337267e-17       5.649796355732e-11       6.451002732815e-12      -8.012401109966e-15 
   49       1.888699090252e-10       1.510908259376e-14       9.700434899497e-14       9.454182847602e-17       5.405116074522e-11       6.206306604004e-12      -8.129023139175e-15 
   50       1.915738707385e-10       1.611765174132e-14       7.350967873635e-14       9.845689221330e-17       5.173462796365e-11       5.972328897650e-12      -8.206191502674e-15 
   51       1.942999795810e-10       1.716591969675e-14       4.828672706745e-14       1.024522509670e-16       4.954401723730e-11       5.748747040805e-12      -8.265009034285e-15 
   52       1.970514627663e-10       1.825389480073e-14       2.130006489457e-14       1.065278280208e-16       4.747724280374e-11       5.535795438028e-12      -8.330836547090e-15 
   53       1.998302127582e-10       1.938149891660e-14      -7.486527954381e-15       1.106835332275e-16       4.552751327021e-11       5.333319416545e-12      -8.433091358211e-15 
   54       2.026366670296e-10       2.054856420169e-14      -3.811018304104e-14       1.149192626700e-16       4.368301496553e-11       5.140747415427e-12      -8.605439618673e-15 
   55       2.054705262064e-10       2.175489838694e-14      -7.060212024907e-14       1.192349064044e-16       4.193051228538e-11       4.957342150911e-12      -8.875121009541e-15 
   56       2.083333928690e-10       2.300050700243e-14      -1.049649180670e-13       1.236303747208e-16       4.026792151286e-11       4.783090890710e-12      -9.227376677166e-15 
   57       2.112265776761e-10       2.428542070230e-14      -1.411898074901e-13       1.281055778120e-16       3.869430597104e-11       4.617987630112e-12      -9.632521314256e-15 
   58       2.141502327453e-10       2.560963104608e-14      -1.792629737426e-13       1.326604182393e-16       3.720607223363e-11       4.461756919921e-12      -1.005581050652e-14 
   59       2.171032640779e-10       2.697308993925e-14      -2.191654060673e-13       1.372947909074e-16       3.579680608707e-11       4.313836924838e-12      -1.045720964821e-14 
   60       2.200832439827e-10       2.837570907380e-14      -2.608727475156e-13       1.420085830408e-16       3.445710849271e-11       4.173362481834e-12      -1.079116285773e-14 
   61       2.230875986564e-10       2.981727869366e-14      -3.043601411044e-13       1.468016891623e-16       3.317720351306e-11       4.039405802169e-12      -1.101714137690e-14 
   62       2.261176805421e-10       3.129720384910e-14      -3.496183792278e-13       1.516740600140e-16       3.195581723893e-11       3.911800039360e-12      -1.113457834330e-14 
   63       2.291754588104e-10       3.281470767963e-14      -3.966411291008e-13       1.566256646240e-16       3.079300981468e-11       3.790471357962e-12      -1.115540112560e-14 
   64       2.322622786815e-10       3.436890380776e-14      -4.454202644175e-13       1.616564767154e-16       2.968750475900e-11       3.675189009057e-12      -1.109405253036e-14 
   65       2.353788143094e-10       3.595879321977e-14      -4.959458736719e-13       1.667664751574e-16       2.863661287942e-11       3.565556563472e-12      -1.096760174247e-14 
   66       2.385250216653e-10       3.758326114648e-14      -5.482062684790e-13       1.719556444176e-16       2.763615618672e-11       3.461003144992e-12      -1.079585526561e-14 
   67       2.417000914221e-10       3.924107394412e-14      -6.021879918955e-13       1.772239750139e-16       2.668039180943e-11       3.360774663574e-12      -1.060146786265e-14 
   68       2.449031046893e-10       4.093099801945e-14      -6.578753044675e-13       1.825714719496e-16       2.576354469340e-11       3.264131473684e-12      -1.040551681481e-14 
   69       2.481352598267e-10       4.265219156007e-14      -7.152485028423e-13       1.879981809968e-16       2.488493640936e-11       3.171007453496e-12      -1.021293536398e-14 
   70       2.513980142739e-10       4.440388694026e-14      -7.742852738457e-13       1.935041685752e-16       2.404476366836e-11       3.081469337057e-12      -1.002431343917e-14 
   71       2.546923930039e-10       4.618527570166e-14      -8.349611816650e-13       1.990895148829e-16       2.324254717358e-11       2.995518680472e-12      -9.840168188378e-15 
   72       2.580189593833e-10       4.799550855547e-14      -8.972496628124e-13       2.047543145531e-16       2.247709668023e-11       2.913088374538e-12      -9.660938891341e-15 
   73       2.613777860313e-10       4.983369538455e-14      -9.611220210887e-13       2.104986773096e-16       2.174647605540e-11       2.834039157368e-12      -9.486981872322e-15 
   74       2.647684256803e-10       5.169890524553e-14      -1.026547422547e-12       2.163227286228e-16       2.104796833791e-11       2.758156127026e-12      -9.318565412884e-15 
   75       2.681898820347e-10       5.359016637102e-14      -1.093492890455e-12       2.222266103660e-16       2.037804079816e-11       2.685145254149e-12      -9.155864664671e-15 
   76       2.716411502560e-10       5.550641314360e-14      -1.161923332555e-12       2.282104745323e-16       1.973322131101e-11       2.614711688773e-12      -8.999125842524e-15 
   77       2.751230166176e-10       5.744631585019e-14      -1.231801639708e-12       2.342744616152e-16       1.911298921005e-11       2.546818875367e-12      -8.849204616255e-15 
   78       2.786365356081e-10       5.940841974221e-14      -1.303088596168e-12       2.404187194591e-16       1.851735056454e-11       2.481470572349e-12      -8.707117110893e-15 
   79       2.821824722433e-10       6.139119424183e-14      -1.375742844583e-12       2.466434103535e-16       1.794595764296e-11       2.418631468883e-12      -8.573877746278e-15 
   80       2.857612846064e-10       6.339303185672e-14      -1.449720881623e-12       2.529487115470e-16       1.739809266011e-11       2.358225374755e-12      -8.450497621071e-15 
   81       2.893731063883e-10       6.541224709476e-14      -1.524977053597e-12       2.593348157602e-16       1.687265152413e-11       2.300133410262e-12      -8.337982896759e-15 
   82       2.930177294281e-10       6.744707537887e-14      -1.601463552090e-12       2.658019317005e-16       1.636812758360e-11       2.244192196099e-12      -8.237333181667e-15 
   83       2.966945862532e-10       6.949567196168e-14      -1.679130409580e-12       2.723502845746e-16       1.588259537460e-11       2.190192043241e-12      -8.149539914962e-15 
   84       3.004030590985e-10       7.155617851537e-14      -1.757926271513e-12       2.789801130339e-16       1.541417825425e-11       2.137928506242e-12      -8.075190504759e-15 
   85       3.041435040678e-10       7.362693796205e-14      -1.837800869159e-12       2.856916582989e-16       1.496257597596e-11       2.087370827820e-12      -8.013208879958e-15 
   86       3.079163655350e-10       7.570631343356e-14      -1.918702950589e-12       2.924851741653e-16       1.452776173229e-11       2.038518229896e-12      -7.961902214969e-15 
   87       3.117218529642e-10       7.779262381426e-14      -2.000579549225e-12       2.993609308596e-16       1.410951278371e-11       1.991348133200e-12      -7.919328491332e-15 
   88       3.155599289379e-10       7.988414379324e-14      -2.083375992516e-12       3.063192154930e-16       1.370740233815e-11       1.945815244022e-12      -7.883288255738e-15 
   89       3.194302971838e-10       8.197910391644e-14      -2.167035910613e-12       3.133603325150e-16       1.332079143069e-11       1.901850640961e-12      -7.851316378060e-15 
   90       3.233323906025e-10       8.407569063879e-14      -2.251501245046e-12       3.204846041673e-16       1.294882080312e-11       1.859360861674e-12      -7.820673809379e-15 
   91       3.272653592946e-10       8.617204637635e-14      -2.336712257395e-12       3.276923709370e-16       1.259040278356e-11       1.818226989625e-12      -7.788339340008e-15 
   92       3.312280585881e-10       8.826626955849e-14      -2.422607537970e-12       3.349839920111e-16       1.224421316613e-11       1.778303740835e-12      -7.751001357517e-15 
   93       3.352193987506e-10       9.035644301333e-14      -2.509124678437e-12       3.423598530119e-16       1.190900521506e-11       1.739456067457e-12      -7.705807629299e-15 
   94       3.392394802951e-10       9.244072389444e-14      -2.596202386588e-12       3.498203895515e-16       1.158462333733e-11       1.701677249525e-12      -7.652761547007e-15 
   95       3.432886080824e-10       9.451726743846e-14      -2.683778707152e-12       3.573660680758e-16       1.127112756215e-11       1.664986958342e-12      -7.592672715804e-15 
   96       3.473669379370e-10       9.658420027205e-14      -2.771790403732e-12       3.649973794433e-16       1.096848135138e-11       1.629394929276e-12      -7.526433176079e-15 
   97       3.514744696387e-10       9.863962085299e-14      -2.860172976597e-12       3.727148394791e-16       1.067654790101e-11       1.594900563488e-12      -7.455019566744e-15 
   98       3.556110399153e-10       1.006815999112e-13      -2.948860680467e-12       3.805189895287e-16       1.039508644243e-11       1.561492529674e-12      -7.379495288548e-15 
   99       3.597763154345e-10       1.027081808899e-13      -3.037786542306e-12       3.884103970111e-16       1.012374854386e-11       1.529148365798e-12      -7.301012667375e-15 
  100       3.639697857958e-10       1.047173803866e-13      -3.126882379108e-12       3.963896559732e-16       9.862074411686e-12       1.497834080832e-12      -7.220815117552e-15 
  101       3.681907565232e-10       1.067071885942e-13      -3.216078815688e-12       4.044573876429e-16       9.609489191819e-12       1.467503756489e-12      -7.140239305154e-15 
  102       3.724383420568e-10       1.086755697420e-13      -3.305305302474e-12       4.126142409830e-16       9.365299271085e-12       1.438099148964e-12      -7.060717311308e-15 
  103       3.767114587453e-10       1.106204625369e-13      -3.394490133289e-12       4.208608932448e-16       9.128688578572e-12       1.409549290665e-12      -6.983778795496e-15 
  104       3.810090499249e-10       1.125398322127e-13      -3.483561068903e-12       4.291980310345e-16       8.898903493443e-12       1.381787171152e-12      -6.910728888264e-15 
  105       3.853308108782e-10       1.144318337358e-13      -3.572447265269e-12       4.376262894074e-16       8.675843981992e-12       1.354803204040e-12      -6.841627654946e-15 
  106       3.896765491982e-10       1.162946715710e-13      -3.661077640138e-12       4.461463055398e-16       8.459545791020e-12       1.328598273839e-12      -6.776176163601e-15 
  107       3.940459570426e-10       1.181265510380e-13      -3.749380314718e-12       4.547587378176e-16       8.249997365820e-12       1.303167093687e-12      -6.714027061737e-15 
