# dimensionless total [l(l+1)/2pi] C_l's
# for l=2 to 3000, i.e. number of multipoles equal to 2999
#
# -> if you prefer output in CAMB/HealPix/LensPix units/order, set 'format' to 'camb' in input file
# -> if you don't want to see such a header, set 'headers' to 'no' in input file
# -> for CMB lensing (phi), these are C_l^phi-phi for the lensing potential.
#    Remember the conversion factors:
#    C_l^dd (deflection) = l(l+1) C_l^phi-phi
#    C_l^gg (shear/convergence) = 1/4 (l(l+1))^2 C_l^phi-phi
#
# 1:l     2:TT                     3:EE                     4:TE                     5:BB                     6:phiphi                 7:TPhi                   8:Ephi               
    2       1.378407769776e-10       4.138907513525e-15       3.529781902592e-13       0.000000000000e+00       8.156759946779e-09       4.443694439382e-10      -1.834407259462e-12 
    3       1.305786366147e-10       5.305367721341e-15       3.953955626566e-13       0.000000000000e+00       5.002559254990e-09       3.159194058495e-10      -1.388940342354e-12 
    4       1.236601524478e-10       4.593069418954e-15       3.695284590429e-13       0.000000000000e+00       3.478005076383e-09       2.396207274057e-10      -9.088131991537e-13 
    5       1.184591855015e-10       3.068115327072e-15       3.150071396433e-13       0.000000000000e+00       2.595430840866e-09       1.895296558773e-10      -5.046499728398e-13 
    6       1.148809042037e-10       1.717785877650e-15       2.542841735599e-13       0.000000000000e+00       2.026690332189e-09       1.544184144102e-10      -2.067670554883e-13 
    7       1.125405445359e-10       9.290127302792e-16       2.003280169040e-13       0.000000000000e+00       1.634329560267e-09       1.286396628436e-10      -1.653856481850e-14 
    8       1.111665346428e-10       5.992527095813e-16       1.587079330286e-13       0.000000000000e+00       1.349715064824e-09       1.090812328637e-10       8.081145645242e-14 
    9       1.105165421530e-10       4.806166438043e-16       1.306135594131e-13       0.000000000000e+00       1.135392146160e-09       9.389740712002e-11       1.083815640959e-13 
   10       1.103672477405e-10       4.089647603325e-16       1.147644086006e-13       0.000000000000e+00       9.695096891644e-10       8.186327606220e-11       9.182322218244e-14 
   11       1.106605291578e-10       3.424251755382e-16       1.086089719288e-13       0.000000000000e+00       8.177528203535e-10       7.245211848988e-11       5.511045692261e-14 
   12       1.112481369293e-10       2.965709679739e-16       1.092717042636e-13       0.000000000000e+00       7.142956050154e-10       6.415858638268e-11       1.571014917146e-14 
   13       1.120796851548e-10       2.830013244988e-16       1.142276439306e-13       0.000000000000e+00       6.293983706892e-10       5.742303293210e-11      -1.443236974549e-14 
   14       1.131060395543e-10       2.944326491766e-16       1.215230001746e-13       0.000000000000e+00       5.587895447093e-10       5.154239903514e-11      -3.106752622194e-14 
   15       1.143168047765e-10       3.194293936620e-16       1.298004107711e-13       0.000000000000e+00       4.993743050392e-10       4.659376705119e-11      -3.432757290860e-14 
   16       1.156395101555e-10       3.553136834303e-16       1.383962263693e-13       0.000000000000e+00       4.488727824660e-10       4.232565546046e-11      -2.807272649862e-14 
   17       1.170982352340e-10       4.069101259416e-16       1.470825890496e-13       0.000000000000e+00       4.055633302814e-10       3.859787240471e-11      -1.740851776781e-14 
   18       1.186320448715e-10       4.790330753847e-16       1.559140577531e-13       0.000000000000e+00       3.679831524264e-10       3.534095010731e-11      -7.179306536470e-15 
   19       1.202525728058e-10       5.718763519868e-16       1.650332750755e-13       0.000000000000e+00       3.355324262726e-10       3.251151071557e-11       1.508079336054e-17 
   20       1.219514686479e-10       6.834922636475e-16       1.745711921422e-13       0.000000000000e+00       3.069579984842e-10       3.000119205688e-11       2.450832383244e-15 
   21       1.237307235975e-10       8.133709509557e-16       1.845302218269e-13       0.000000000000e+00       2.818093263802e-10       2.776433020519e-11       6.814288775326e-16 
   22       1.255650078322e-10       9.612211749715e-16       1.947936474968e-13       0.000000000000e+00       2.594830176189e-10       2.574232602585e-11      -3.565019572539e-15 
   23       1.274583299052e-10       1.127400531233e-15       2.050285426629e-13       0.000000000000e+00       2.396711337910e-10       2.392455220551e-11      -8.565387777338e-15 
   24       1.294031212176e-10       1.312341549326e-15       2.147998362235e-13       0.000000000000e+00       2.219147592851e-10       2.229325321313e-11      -1.248799911625e-14 
   25       1.314024427455e-10       1.516466483407e-15       2.238637108825e-13       0.000000000000e+00       2.060043344015e-10       2.083118494288e-11      -1.452905603442e-14 
   26       1.334464621494e-10       1.740325454315e-15       2.320363398558e-13       0.000000000000e+00       1.916511479198e-10       1.950653225173e-11      -1.437367443636e-14 
   27       1.355286148584e-10       1.985514670465e-15       2.392121470580e-13       0.000000000000e+00       1.786825035991e-10       1.830102381421e-11      -1.260392633794e-14 
   28       1.376348859693e-10       2.253969976072e-15       2.453327588459e-13       0.000000000000e+00       1.668743196420e-10       1.719326005680e-11      -1.017350983863e-14 
   29       1.397746941999e-10       2.547114472536e-15       2.504263393828e-13       0.000000000000e+00       1.561660408611e-10       1.618159057557e-11      -7.720082190762e-15 
   30       1.419537370094e-10       2.866232985846e-15       2.545770184840e-13       0.000000000000e+00       1.464424336511e-10       1.526170742925e-11      -5.899049995738e-15 
   31       1.441671870596e-10       3.212552457568e-15       2.578768270669e-13       0.000000000000e+00       1.375048337618e-10       1.442063100671e-11      -5.320530989176e-15 
   32       1.464177672285e-10       3.586978723436e-15       2.602974790503e-13       0.000000000000e+00       1.293069124263e-10       1.364985093588e-11      -5.826737605303e-15 
   33       1.487017530754e-10       3.990247847167e-15       2.617706408731e-13       0.000000000000e+00       1.217905290928e-10       1.293535491503e-11      -6.931850602912e-15 
   34       1.510085955834e-10       4.423064087364e-15       2.622107498950e-13       0.000000000000e+00       1.148502935129e-10       1.225978162370e-11      -8.088542015450e-15 
   35       1.533409178549e-10       4.886376441706e-15       2.614821963126e-13       0.000000000000e+00       1.084505751052e-10       1.162496020609e-11      -9.007422241189e-15 
   36       1.556997906979e-10       5.381192684365e-15       2.594180674183e-13       0.000000000000e+00       1.025399274504e-10       1.103649449301e-11      -9.440617710525e-15 
   37       1.580819124230e-10       5.908464437783e-15       2.558630493183e-13       0.000000000000e+00       9.704130402091e-11       1.049705269516e-11      -9.184184359652e-15 
   38       1.604909735526e-10       6.468948268166e-15       2.507970260096e-13       0.000000000000e+00       9.194044602744e-11       1.000468539988e-11      -8.384851457022e-15 
   39       1.629288947301e-10       7.063292149791e-15       2.442527284100e-13       0.000000000000e+00       8.722112820611e-11       9.553424984133e-12      -7.338203264136e-15 
   40       1.653920417335e-10       7.692066198444e-15       2.362843122405e-13       0.000000000000e+00       8.283827470885e-11       9.133320861942e-12      -6.412621716365e-15 
   41       1.678742896180e-10       8.355804740561e-15       2.269450987757e-13       0.000000000000e+00       7.873365270888e-11       8.733479157155e-12      -5.953287772147e-15 
   42       1.703788102050e-10       9.055161112699e-15       2.162089605496e-13       0.000000000000e+00       7.489514648433e-11       8.353150573832e-12      -5.945275572895e-15 
   43       1.729091448046e-10       9.790794767556e-15       2.040255297537e-13       0.000000000000e+00       7.131254374845e-11       7.993706730224e-12      -6.248713383296e-15 
   44       1.754655668965e-10       1.056332674123e-14       1.903412321485e-13       0.000000000000e+00       6.795974979166e-11       7.655497032437e-12      -6.687855040718e-15 
   45       1.780464732764e-10       1.137332969419e-14       1.751039486496e-13       0.000000000000e+00       6.480410212396e-11       7.338054031844e-12      -7.089632968344e-15 
   46       1.806538320344e-10       1.222129874954e-14       1.582794234336e-13       0.000000000000e+00       6.184061424010e-11       7.041001083007e-12      -7.418288399954e-15 
   47       1.832888012833e-10       1.310766885727e-14       1.398392115473e-13       0.000000000000e+00       5.906581892222e-11       6.763258406394e-12      -7.677217318725e-15 
   48       1.859499237602e-10       1.403281996577e-14       1.197560849300e-13       0.000000000000e+00       5.646744020619e-11       6.502695074467e-12      -7.871820302358e-15 
   49       1.886328955711e-10       1.499707474235e-14       9.800399635606e-14       0.000000000000e+00       5.402373842008e-11       6.256053506509e-12      -8.009632533190e-15 
   50       1.913328572044e-10       1.600068385952e-14       7.455675462585e-14       0.000000000000e+00       5.171005415974e-11       6.019900120912e-12      -8.102093863041e-15 
   51       1.940525362054e-10       1.704378243425e-14       4.938370985695e-14       0.000000000000e+00       4.952205379836e-11       5.793956672797e-12      -8.170123805048e-15 
   52       1.967959150006e-10       1.812641782437e-14       2.245283468577e-14       0.000000000000e+00       4.745766156662e-11       5.578542655006e-12      -8.240284540792e-15 
   53       1.995657919174e-10       1.924855823248e-14      -6.268183754570e-15       0.000000000000e+00       4.551010340382e-11       5.373601603323e-12      -8.343475400146e-15 
   54       2.023636686246e-10       2.041008984133e-14      -3.681204053928e-14       0.000000000000e+00       4.366759076988e-11       5.178673881057e-12      -8.515140050431e-15 
   55       2.051902137441e-10       2.161087203153e-14      -6.920668416436e-14       0.000000000000e+00       4.191691504315e-11       4.993122903161e-12      -8.784252006841e-15 
   56       2.080470464218e-10       2.285092566076e-14      -1.034582166307e-13       0.000000000000e+00       4.025600071476e-11       4.816941967269e-12      -9.136592297046e-15 
   57       2.109351986769e-10       2.413028653945e-14      -1.395639147601e-13       0.000000000000e+00       3.868391684911e-11       4.650100186874e-12      -9.542712088198e-15 
   58       2.138544899001e-10       2.544895085772e-14      -1.775169789460e-13       0.000000000000e+00       3.719707945875e-11       4.492289648895e-12      -9.968130084887e-15 
   59       2.168034367416e-10       2.680687458362e-14      -2.173064262681e-13       0.000000000000e+00       3.578908767686e-11       4.342908072535e-12      -1.037310251003e-14 
   60       2.197791630000e-10       2.820397286146e-14      -2.589169836062e-13       0.000000000000e+00       3.445055992971e-11       4.201041468127e-12      -1.071239308577e-14 
   61       2.227786973526e-10       2.964003748014e-14      -3.023316278361e-13       0.000000000000e+00       3.317173788992e-11       4.065716454201e-12      -1.094568571951e-14 
   62       2.258034107927e-10       3.111446899209e-14      -3.475401145026e-13       0.000000000000e+00       3.195135196637e-11       3.936762620991e-12      -1.107207412944e-14 
   63       2.288554198510e-10       3.262648312412e-14      -3.945321825405e-13       0.000000000000e+00       3.078946411007e-11       3.814113842416e-12      -1.110294084436e-14 
   64       2.319362414827e-10       3.417518426359e-14      -4.432950536772e-13       0.000000000000e+00       2.968480112828e-11       3.697547087473e-12      -1.105210316255e-14 
   65       2.350467469908e-10       3.575956225712e-14      -4.938134095371e-13       0.000000000000e+00       2.863467867659e-11       3.586673635142e-12      -1.093592081758e-14 
   66       2.381871159497e-10       3.737848920926e-14      -5.460693687459e-13       0.000000000000e+00       2.763492525098e-11       3.480930289288e-12      -1.077340364420e-14 
   67       2.413567901296e-10       3.903071628121e-14      -6.000424640351e-13       0.000000000000e+00       2.667980617990e-11       3.379570593565e-12      -1.058631924427e-14 
   68       2.445550634432e-10       4.071499728248e-14      -6.557106962923e-13       0.000000000000e+00       2.576355456730e-11       3.281861048457e-12      -1.039497871606e-14 
   69       2.477830935927e-10       4.243049568209e-14      -7.130539959055e-13       0.000000000000e+00       2.488549424372e-11       3.187735568410e-12      -1.020436158438e-14 
   70       2.510422171352e-10       4.417645469649e-14      -7.720514248701e-13       0.000000000000e+00       2.404582308543e-11       3.097258462314e-12      -1.001535991409e-14 
   71       2.543333202491e-10       4.595207783445e-14      -8.326801664625e-13       0.000000000000e+00       2.324406362568e-11       3.010427686080e-12      -9.828848672301e-15 
   72       2.576568089248e-10       4.775652893848e-14      -8.949155298878e-13       0.000000000000e+00       2.247902814521e-11       2.927171300570e-12      -9.645682858774e-15 
   73       2.610125791550e-10       4.958893222640e-14      -9.587309549275e-13       0.000000000000e+00       2.174878376279e-11       2.847343929518e-12      -9.466694636345e-15 
   74       2.643999871247e-10       5.144837233277e-14      -1.024098016587e-12       0.000000000000e+00       2.105061752583e-11       2.770723217455e-12      -9.292690461343e-15 
   75       2.678178194022e-10       5.333389435040e-14      -1.090986429744e-12       0.000000000000e+00       2.038100150092e-11       2.697006287635e-12      -9.124448214012e-15 
   76       2.712648855547e-10       5.524444813003e-14      -1.159363647850e-12       0.000000000000e+00       1.973646818741e-11       2.625890108143e-12      -8.962777506821e-15 
   77       2.747419866535e-10       5.717870936115e-14      -1.229193564281e-12       0.000000000000e+00       1.911649822424e-11       2.557337339265e-12      -8.808719649149e-15 
   78       2.782502532449e-10       5.913522578819e-14      -1.300437581518e-12       0.000000000000e+00       1.852109829353e-11       2.491352754661e-12      -8.663379103094e-15 
   79       2.817905379994e-10       6.111246897420e-14      -1.373054992464e-12       0.000000000000e+00       1.794992153333e-11       2.427901841907e-12      -8.527861991890e-15 
   80       2.853633986653e-10       6.310883319929e-14      -1.447002976765e-12       0.000000000000e+00       1.740225129516e-11       2.366908981015e-12      -8.403274525842e-15 
   81       2.889690810223e-10       6.512263435912e-14      -1.522236597139e-12       0.000000000000e+00       1.687698490140e-11       2.308255622971e-12      -8.290721428263e-15 
   82       2.926075018356e-10       6.715210886334e-14      -1.598708795695e-12       0.000000000000e+00       1.637261740283e-11       2.251778468261e-12      -8.191304361400e-15 
   83       2.962782318090e-10       6.919541253403e-14      -1.676370390259e-12       0.000000000000e+00       1.588722533604e-11       2.197267645400e-12      -8.106120352377e-15 
   84       2.999807786690e-10       7.125068771152e-14      -1.755170691592e-12       0.000000000000e+00       1.541893399795e-11       2.144518500316e-12      -8.035805387772e-15 
   85       3.037155276745e-10       7.331627976648e-14      -1.835059480678e-12       0.000000000000e+00       1.496744385273e-11       2.093500819029e-12      -7.979081710971e-15 
   86       3.074829264948e-10       7.539055462824e-14      -1.915985354010e-12       0.000000000000e+00       1.453272856750e-11       2.044214449366e-12      -7.933965691789e-15 
   87       3.112831871176e-10       7.747183381285e-14      -1.997895138501e-12       0.000000000000e+00       1.411456599735e-11       1.996637277507e-12      -7.898192163109e-15 
   88       3.151162738468e-10       7.955839446795e-14      -2.080733898240e-12       0.000000000000e+00       1.371253006921e-11       1.950724307538e-12      -7.869205202588e-15 
   89       3.189818913004e-10       8.164846941758e-14      -2.164444941251e-12       0.000000000000e+00       1.332598266562e-11       1.906406741008e-12      -7.844148914368e-15 
   90       3.228794724085e-10       8.374024720692e-14      -2.248969826251e-12       0.000000000000e+00       1.295406550855e-11       1.863591056472e-12      -7.819858210785e-15 
   91       3.268081664108e-10       8.583187214716e-14      -2.334248369411e-12       0.000000000000e+00       1.259569204320e-11       1.822158089053e-12      -7.792849594079e-15 
   92       3.307668268553e-10       8.792144436025e-14      -2.420218651111e-12       0.000000000000e+00       1.224953932180e-11       1.781962109990e-12      -7.759311938100e-15 
   93       3.347543601571e-10       9.000704811039e-14      -2.506817838229e-12       0.000000000000e+00       1.191436178171e-11       1.742867353114e-12      -7.715980848591e-15 
   94       3.387708573136e-10       9.208684157530e-14      -2.593984777777e-12       0.000000000000e+00       1.159000419179e-11       1.704865877661e-12      -7.662932194104e-15 
   95       3.428166110012e-10       9.415898072220e-14      -2.681657807658e-12       0.000000000000e+00       1.127652675607e-11       1.667975812705e-12      -7.601193633605e-15 
   96       3.468917632209e-10       9.622159265147e-14      -2.769773993610e-12       0.000000000000e+00       1.097389314584e-11       1.632205088728e-12      -7.531901345291e-15 
   97       3.509962982462e-10       9.827277602972e-14      -2.858269147158e-12       0.000000000000e+00       1.068196680207e-11       1.597551031204e-12      -7.456302937041e-15 
   98       3.551300355698e-10       1.003106015229e-13      -2.947077843569e-12       0.000000000000e+00       1.040050723778e-11       1.563999954179e-12      -7.375760356866e-15 
   99       3.592926228510e-10       1.023331122294e-13      -3.036133439806e-12       0.000000000000e+00       1.012916634044e-11       1.531526753849e-12      -7.291752803349e-15 
  100       3.634835288634e-10       1.043383241131e-13      -3.125368092477e-12       0.000000000000e+00       9.867484674386e-12       1.500094502143e-12      -7.205879636099e-15 
  101       3.677020364417e-10       1.063242264365e-13      -3.214712775793e-12       0.000000000000e+00       9.614887783172e-12       1.469654040302e-12      -7.119863286196e-15 
  102       3.719472354289e-10       1.082887821937e-13      -3.304097299518e-12       0.000000000000e+00       9.370682492003e-12       1.440143572459e-12      -7.035552166637e-15 
  103       3.762180156243e-10       1.102299285437e-13      -3.393450326927e-12       0.000000000000e+00       9.134053210112e-12       1.411488259220e-12      -6.954923582789e-15 
  104       3.805133001876e-10       1.121456283421e-13      -3.482699969280e-12       0.000000000000e+00       8.904246764292e-12       1.383617787067e-12      -6.879659324221e-15 
  105       3.848327969542e-10       1.140340317321e-13      -3.571775622065e-12       0.000000000000e+00       8.681163299470e-12       1.356522654917e-12      -6.809800878021e-15 
  106       3.891763359360e-10       1.158933372912e-13      -3.660606411433e-12       0.000000000000e+00       8.464838678386e-12       1.330204768770e-12      -6.744917134619e-15 
  107       3.935436335698e-10       1.177217438643e-13      -3.749120663816e-12       0.000000000000e+00       8.255261472242e-12       1.304659938505e-12      -6.684513720500e-15 
