# dimensionless total lensed [l(l+1)/2pi] C_l's
# for l=2 to 2500, i.e. number of multipoles equal to 2499
#
# -> if you prefer output in CAMB/HealPix/LensPix units/order, set 'format' to 'camb' in input file
# -> if you don't want to see such a header, set 'headers' to 'no' in input file
# -> for CMB lensing (phi), these are C_l^phi-phi for the lensing potential.
#    Remember the conversion factors:
#    C_l^dd (deflection) = l(l+1) C_l^phi-phi
#    C_l^gg (shear/convergence) = 1/4 (l(l+1))^2 C_l^phi-phi
#
# 1:l     2:TT                     3:EE                     4:TE                     5:BB                     6:phiphi                 7:TPhi                   8:Ephi               
    2       1.370443514581e-10       4.143390439159e-15       3.537305893068e-13       2.239090166217e-19       8.179990604569e-09       4.432423597368e-10      -1.839547980230e-12 
    3       1.298433536528e-10       5.312560269864e-15       3.966278318984e-13       4.479108269658e-19       5.036765138599e-09       3.146475095471e-10      -1.394574000040e-12 
    4       1.230019041161e-10       4.599964925298e-15       3.707026787514e-13       7.467223963055e-19       3.505570931640e-09       2.381067734265e-10      -9.139880189052e-13 
    5       1.178838090562e-10       3.072553705283e-15       3.155617739924e-13       1.120462335249e-18       2.616377317709e-09       1.879379277708e-10      -5.092739433410e-13 
    6       1.143805241120e-10       1.719547558634e-15       2.539738272401e-13       1.569274630142e-18       2.042852985818e-09       1.528124859889e-10      -2.108844857617e-13 
    7       1.120994388553e-10       9.288943670024e-16       1.992500200733e-13       2.093325983481e-18       1.646775707551e-09       1.270268951568e-10      -2.034204061176e-14 
    8       1.107801397900e-10       5.983465793455e-16       1.572041764847e-13       2.692802805199e-18       1.359159347026e-09       1.074922495310e-10       7.712746435591e-14 
    9       1.101921868290e-10       4.801791036920e-16       1.290975255474e-13       3.367907943583e-18       1.142603365287e-09       9.238679156673e-11       1.046988308127e-13 
   10       1.100838220696e-10       4.103436662811e-16       1.135882995467e-13       4.118857250896e-18       9.753254876893e-10       8.045783035291e-11       8.812058418573e-14 
   11       1.104223620893e-10       3.466775639177e-16       1.080004725290e-13       4.945876081697e-18       8.231380273938e-10       7.115581191188e-11       5.147398866656e-14 
   12       1.110457389040e-10       3.040081975164e-16       1.092366077520e-13       5.849195821431e-18       7.188654501047e-10       6.289989011511e-11       1.218358513047e-14 
   13       1.118961682607e-10       2.931382830435e-16       1.146115842063e-13       6.829050539048e-18       6.333050615477e-10       5.621553913832e-11      -1.773372290154e-14 
   14       1.129680080631e-10       3.063395713305e-16       1.221262216350e-13       7.885673850439e-18       5.621543549458e-10       5.045262151176e-11      -3.401145015328e-14 
   15       1.142124254806e-10       3.321887588879e-16       1.304117551014e-13       9.019296069579e-18       5.022896316085e-10       4.557476075380e-11      -3.694614461689e-14 
   16       1.155543133070e-10       3.683884349679e-16       1.388472427613e-13       1.023014171192e-17       4.514119338895e-10       4.135709873055e-11      -3.038499202177e-14 
   17       1.170289486322e-10       4.202758172784e-16       1.473137080528e-13       1.151842740015e-17       4.077853468833e-10       3.766970702011e-11      -1.945989458615e-14 
   18       1.185825795701e-10       4.930849894462e-16       1.559257981099e-13       1.288436003206e-17       3.699352214092e-10       3.447431906968e-11      -9.015469182327e-15 
   19       1.202287984914e-10       5.871532236943e-16       1.648819628516e-13       1.432813645005e-17       3.372555950657e-10       3.171790421541e-11      -1.651944358590e-15 
   20       1.219580824921e-10       7.005634669079e-16       1.743689585012e-13       1.584994075443e-17       3.084837262775e-10       2.926469466689e-11       9.067996773981e-16 
   21       1.237628127418e-10       8.327267662489e-16       1.843709224965e-13       1.744994670225e-17       2.831649972202e-10       2.706629721678e-11      -7.794486051942e-16 
   22       1.256075756646e-10       9.831837344307e-16       1.947208372740e-13       1.912831476285e-17       2.606908176535e-10       2.507304584588e-11      -4.966498276060e-15 
   23       1.275067541195e-10       1.152055228134e-15       2.050554624805e-13       2.088519590135e-17       2.407504895990e-10       2.328985992669e-11      -9.900743508609e-15 
   24       1.294672352600e-10       1.339525940735e-15       2.149110756052e-13       2.272072858277e-17       2.228814375009e-10       2.171234230030e-11      -1.371712396504e-14 
   25       1.314806023784e-10       1.546027423466e-15       2.240155121905e-13       2.463504417947e-17       2.068722244110e-10       2.030110342112e-11      -1.561790030369e-14 
   26       1.335209465853e-10       1.772216513543e-15       2.321630660655e-13       2.662826335960e-17       1.924317904004e-10       1.899640679360e-11      -1.531170812331e-14 
   27       1.355954975100e-10       2.019778093744e-15       2.392707403605e-13       2.870050128028e-17       1.793860141517e-10       1.779928218411e-11      -1.341337828014e-14 
   28       1.377114196504e-10       2.290734454431e-15       2.453170999552e-13       3.085186511919e-17       1.675091199219e-10       1.671967539147e-11      -1.090695898354e-14 
   29       1.398756307247e-10       2.586543850496e-15       2.503417850727e-13       3.308246253235e-17       1.567399515996e-10       1.575202128016e-11      -8.416221218818e-15 
   30       1.420818377910e-10       2.908513045190e-15       2.544333833177e-13       3.539239459942e-17       1.469623541127e-10       1.487426048040e-11      -6.562174651809e-15 
   31       1.443133599994e-10       3.257891261647e-15       2.576874577331e-13       3.778175579293e-17       1.379762330595e-10       1.405644411113e-11      -5.921647304051e-15 
   32       1.465746625596e-10       3.635598894061e-15       2.600727752832e-13       4.025064462576e-17       1.297348335829e-10       1.329443741678e-11      -6.347048845445e-15 
   33       1.488690349796e-10       4.042383730499e-15       2.615148577997e-13       4.279915678949e-17       1.221795501257e-10       1.258732962306e-11      -7.380099070693e-15 
   34       1.511922845399e-10       4.478951270794e-15       2.619209757258e-13       4.542738386706e-17       1.152042513981e-10       1.193038845746e-11      -8.498715416307e-15 
   35       1.535437037275e-10       4.946208008675e-15       2.611504297995e-13       4.813541856937e-17       1.087729856361e-10       1.132311683208e-11      -9.404542191223e-15 
   36       1.559171380905e-10       5.445095645743e-15       2.590311384906e-13       5.092335144356e-17       1.028338998105e-10       1.076320635953e-11      -9.826973163906e-15 
   37       1.583027474594e-10       5.976501008502e-15       2.554037281624e-13       5.379126908204e-17       9.730940305705e-11       1.024558276987e-11      -9.540526873032e-15 
   38       1.607063122537e-10       6.541176079542e-15       2.502522214379e-13       5.673925235417e-17       9.218509307682e-11       9.767837173998e-12      -8.695491567413e-15 
   39       1.631351841282e-10       7.139784772209e-15       2.436170299344e-13       5.976737771669e-17       8.744461215009e-11       9.326035623172e-12      -7.600066571396e-15 
   40       1.655924850531e-10       7.772918363195e-15       2.355617803868e-13       6.287571776287e-17       8.304260281663e-11       8.912907994691e-12      -6.638141677770e-15 
   41       1.680782237096e-10       8.441131114481e-15       2.261485247423e-13       6.606433845225e-17       7.892048313723e-11       8.520240191572e-12      -6.168628866399e-15 
   42       1.705942715285e-10       9.145072312485e-15       2.153502703951e-13       6.933328957625e-17       7.506602780742e-11       8.147657249858e-12      -6.172280173731e-15 
   43       1.731401734815e-10       9.885389351473e-15       2.031123522465e-13       7.268261128613e-17       7.146892633614e-11       7.796230369312e-12      -6.498133929954e-15 
   44       1.757112994150e-10       1.066268928572e-14       1.893757948207e-13       7.611233651925e-17       6.810290570634e-11       7.465959479938e-12      -6.956833064320e-15 
   45       1.783015184136e-10       1.147753684968e-14       1.740831434014e-13       7.962248738924e-17       6.493509582704e-11       7.156059750824e-12      -7.362633873978e-15 
   46       1.809130816145e-10       1.233045230150e-14       1.571989590586e-13       8.321306339734e-17       6.196045807415e-11       6.866147290919e-12      -7.679990673108e-15 
   47       1.835490397554e-10       1.322190969450e-14       1.386947847184e-13       8.688404946043e-17       5.917548878429e-11       6.595246208817e-12      -7.916764837060e-15 
   48       1.862102377053e-10       1.415233503645e-14       1.185434220202e-13       9.063541874579e-17       5.656783647362e-11       6.341366611474e-12      -8.083833954252e-15 
   49       1.888951060384e-10       1.512210438035e-14       9.671889809996e-14       9.446713233229e-17       5.411564411057e-11       6.101431510046e-12      -8.195278821702e-15 
   50       1.916012198286e-10       1.613151154901e-14       7.319474042453e-14       9.837913886245e-17       5.179412294403e-11       5.872168811884e-12      -8.268567289350e-15 
   51       1.943309573905e-10       1.718066541007e-14       4.793832629972e-14       1.023713741732e-16       4.959890353994e-11       5.653242312432e-12      -8.324730793588e-15 
   52       1.970870172637e-10       1.826956141721e-14       2.091494218348e-14       1.064437609793e-16       4.752788619779e-11       5.444844227950e-12      -8.388558974999e-15 
   53       1.998706629506e-10       1.939810628031e-14      -7.910768576303e-15       1.105962085424e-16       4.557425348554e-11       5.246777367107e-12      -8.488789432114e-15 
   54       2.026815976545e-10       2.056611462726e-14      -3.857491857926e-14       1.148286123317e-16       4.372615282086e-11       5.058427452640e-12      -8.658294568658e-15 
   55       2.055188574521e-10       2.177337869072e-14      -7.110770651163e-14       1.191408617807e-16       4.197030651401e-11       4.879020686071e-12      -8.923621989937e-15 
   56       2.083840376082e-10       2.301990528876e-14      -1.055112087399e-13       1.235328665899e-16       4.030461926819e-11       4.708534778339e-12      -9.270144848218e-15 
   57       2.112786483406e-10       2.430573186817e-14      -1.417762683158e-13       1.280045363640e-16       3.872814666910e-11       4.546965757945e-12      -9.668581372604e-15 
   58       2.142030828863e-10       2.563085815497e-14      -1.798886461775e-13       1.325557730651e-16       3.723728130526e-11       4.394046352194e-12      -1.008465982283e-14 
   59       2.171565319185e-10       2.699524566132e-14      -2.198288697255e-13       1.371864709893e-16       3.582558836729e-11       4.249229422218e-12      -1.047889053970e-14 
   60       2.201368979639e-10       2.839881719248e-14      -2.615720813995e-13       1.418965167423e-16       3.448364124711e-11       4.111671398002e-12      -1.080633799558e-14 
   61       2.231419064855e-10       2.984137284082e-14      -3.050930637826e-13       1.466858042456e-16       3.320163596137e-11       3.980467742283e-12      -1.102703648430e-14 
   62       2.261729241754e-10       3.132231704930e-14      -3.503829755381e-13       1.515542837425e-16       3.197829209480e-11       3.855458578152e-12      -1.114048486444e-14 
   63       2.292318497510e-10       3.284086913068e-14      -3.974361204253e-13       1.565019237996e-16       3.081366712951e-11       3.736575321333e-12      -1.115852526786e-14 
   64       2.323199462471e-10       3.439613829367e-14      -4.462451148285e-13       1.615286976921e-16       2.970647919966e-11       3.623596209658e-12      -1.109549028314e-14 
   65       2.354377934027e-10       3.598712050013e-14      -4.968009005799e-13       1.666345838568e-16       2.865403086063e-11       3.516137734778e-12      -1.096831272066e-14 
   66       2.385852400471e-10       3.761269532208e-14      -5.490927577841e-13       1.718195663452e-16       2.765213285830e-11       3.413646073871e-12      -1.079663537767e-14 
   67       2.417613564864e-10       3.927162279890e-14      -6.031083176413e-13       1.770836352766e-16       2.669502789832e-11       3.315388521352e-12      -1.060292080338e-14 
   68       2.449651245957e-10       4.096266318977e-14      -6.588328060325e-13       1.824267952841e-16       2.577692658718e-11       3.220645875928e-12      -1.040805909802e-14 
   69       2.481977768995e-10       4.268497143357e-14      -7.162465676277e-13       1.878490918285e-16       2.489714705185e-11       3.129354021977e-12      -1.021691249352e-14 
   70       2.514608480935e-10       4.443777733815e-14      -7.753270608291e-13       1.933505910547e-16       2.405588458312e-11       3.041577554302e-12      -1.003002545322e-14 
   71       2.547554510429e-10       4.622026975719e-14      -8.360495758942e-13       1.989313729159e-16       2.325265723701e-11       2.957316957946e-12      -9.847862198651e-15 
   72       2.580822480368e-10       4.803159659038e-14      -8.983872280866e-13       2.045915318313e-16       2.248627083604e-11       2.876505179424e-12      -9.670801334794e-15 
   73       2.614414220413e-10       4.987086478368e-14      -9.623109508256e-13       2.103311773431e-16       2.175478397046e-11       2.799004197949e-12      -9.499130475409e-15 
   74       2.648326479533e-10       5.173714032951e-14      -1.027789488837e-12       2.161504347744e-16       2.105547299954e-11       2.724601596669e-12      -9.333040868303e-15 
   75       2.682550638541e-10       5.362944826697e-14      -1.094789391302e-12       2.220494458866e-16       2.038479705282e-11       2.653007133898e-12      -9.172622020615e-15 
   76       2.717077750102e-10       5.554672003434e-14      -1.163275069456e-12       2.280283625702e-16       1.973927610802e-11       2.583930091753e-12      -9.018030815791e-15 
   77       2.751915355268e-10       5.748762444231e-14      -1.233208996646e-12       2.340873251364e-16       1.911838744900e-11       2.517335185390e-12      -8.870046348999e-15 
   78       2.787073225502e-10       5.945070573513e-14      -1.304551532481e-12       2.402264812431e-16       1.852213625918e-11       2.453227307485e-12      -8.729606973929e-15 
   79       2.822558131918e-10       6.143443244197e-14      -1.377260856177e-12       2.464459930164e-16       1.795017339001e-11       2.391573147083e-12      -8.597643019357e-15 
   80       2.858373667058e-10       6.343719629757e-14      -1.451292961034e-12       2.527460375653e-16       1.740177908563e-11       2.332299417243e-12      -8.475074992524e-15 
   81       2.894520066676e-10       6.545731116287e-14      -1.526601648906e-12       2.591268074962e-16       1.687584670746e-11       2.275291082668e-12      -8.362811782521e-15 
   82       2.930994031514e-10       6.749301194566e-14      -1.603138524673e-12       2.655885114276e-16       1.637086645886e-11       2.220389587346e-12      -8.261748863665e-15 
   83       2.967788549084e-10       6.954245352121e-14      -1.680852990710e-12       2.721313745046e-16       1.588490910978e-11       2.167391082189e-12      -8.172766498882e-15 
   84       3.004896283516e-10       7.160377704144e-14      -1.759693181856e-12       2.787556353218e-16       1.541609437321e-11       2.116096486285e-12      -8.096378566324e-15 
   85       3.042320781161e-10       7.367532385714e-14      -1.839608960507e-12       2.854615349790e-16       1.496412089998e-11       2.066475088446e-12      -8.031616084517e-15 
   86       3.080066804523e-10       7.575545524547e-14      -1.920549410214e-12       2.922493271458e-16       1.452896126391e-11       2.018524943897e-12      -7.976954444756e-15 
   87       3.118136812843e-10       7.784248822697e-14      -2.002461949469e-12       2.991192819403e-16       1.411039185143e-11       1.972222564159e-12      -7.930638775973e-15 
   88       3.156530843849e-10       7.993469561873e-14      -2.085292341980e-12       3.060716863830e-16       1.370798473162e-11       1.927522015840e-12      -7.890676276237e-15 
   89       3.195246395506e-10       8.203030608766e-14      -2.168984706947e-12       3.131068448512e-16       1.332109952624e-11       1.884354019431e-12      -7.854828544258e-15 
   90       3.234278307758e-10       8.412750420367e-14      -2.253481529347e-12       3.202250795328e-16       1.294887527978e-11       1.842625048090e-12      -7.820603910888e-15 
   91       3.273618644284e-10       8.622443049291e-14      -2.338723670206e-12       3.274267308813e-16       1.259022232952e-11       1.802216426438e-12      -7.785249770623e-15 
   92       3.313256574236e-10       8.831918149096e-14      -2.424650376880e-12       3.347121580695e-16       1.224381417555e-11       1.762983429349e-12      -7.745744913106e-15 
   93       3.353181744957e-10       9.040983806451e-14      -2.511199792587e-12       3.420817467445e-16       1.190840193157e-11       1.724791747987e-12      -7.699477414997e-15 
   94       3.393395237213e-10       9.249455513336e-14      -2.598310550349e-12       3.495359326405e-16       1.158382943477e-11       1.687635119119e-12      -7.646411598457e-15 
   95       3.433900046658e-10       9.457148560378e-14      -2.685920438897e-12       3.570751823736e-16       1.127015648749e-11       1.651533803333e-12      -7.587234321568e-15 
   96       3.474697670289e-10       9.663875373779e-14      -2.773965941680e-12       3.646999870048e-16       1.096734622754e-11       1.616498411062e-12      -7.522700175982e-15 
   97       3.515788036113e-10       9.869445559436e-14      -2.862382253994e-12       3.724108625946e-16       1.067526142628e-11       1.582529514312e-12      -7.453633228998e-15 
   98       3.557169432816e-10       1.007366594707e-13      -2.951103300120e-12       3.802083507571e-16       1.039366078670e-11       1.549617258386e-12      -7.380928765635e-15 
   99       3.598838439431e-10       1.027634063435e-13      -3.040061750446e-12       3.880930192148e-16       1.012219524143e-11       1.517740973605e-12      -7.305555030713e-15 
  100       3.640789855005e-10       1.047727103101e-13      -3.129189038608e-12       3.960654623527e-16       9.860404250848e-12       1.486868787041e-12      -7.228554970927e-15 
  101       3.683016628264e-10       1.067625590299e-13      -3.218415378614e-12       4.041263017732e-16       9.607712101090e-12       1.456957234236e-12      -7.151047976924e-15 
  102       3.725509787284e-10       1.087309141656e-13      -3.307669781979e-12       4.122761868502e-16       9.363424202142e-12       1.427950870929e-12      -7.074231625380e-15 
  103       3.768258369157e-10       1.106757118242e-13      -3.396880074858e-12       4.205157952839e-16       9.126723385886e-12       1.399781884781e-12      -6.999383421079e-15 
  104       3.811251692501e-10       1.125949149397e-13      -3.485973607775e-12       4.288458141286e-16       8.896855015684e-12       1.372386154385e-12      -6.927596272451e-15 
  105       3.854486676099e-10       1.144866775291e-13      -3.574879457114e-12       4.372668787657e-16       8.673718766962e-12       1.345754733195e-12      -6.858940469964e-15 
  106       3.897961382382e-10       1.163492035504e-13      -3.663526554344e-12       4.457796266820e-16       8.457350258227e-12       1.319888628846e-12      -6.793191223959e-15 
  107       3.941672718823e-10       1.181806979434e-13      -3.751843044414e-12       4.543847165959e-16       8.247737770689e-12       1.294782771883e-12      -6.730083652535e-15 
