# dimensionless total [l(l+1)/2pi] C_l's
# for l=2 to 3000, i.e. number of multipoles equal to 2999
#
# -> if you prefer output in CAMB/HealPix/LensPix units/order, set 'format' to 'camb' in input file
# -> if you don't want to see such a header, set 'headers' to 'no' in input file
# -> for CMB lensing (phi), these are C_l^phi-phi for the lensing potential.
#    Remember the conversion factors:
#    C_l^dd (deflection) = l(l+1) C_l^phi-phi
#    C_l^gg (shear/convergence) = 1/4 (l(l+1))^2 C_l^phi-phi
#
# 1:l     2:TT                     3:EE                     4:TE                     5:BB                     6:phiphi                 7:TPhi                   8:Ephi               
    2       1.370301445755e-10       4.143441055019e-15       3.535954380278e-13       0.000000000000e+00       8.184799063809e-09       4.433645735503e-10      -1.839660296191e-12 
    3       1.298311519684e-10       5.312428921874e-15       3.965053185921e-13       0.000000000000e+00       5.037781553336e-09       3.147086772479e-10      -1.394641020794e-12 
    4       1.229911986707e-10       4.599384058916e-15       3.705992818239e-13       0.000000000000e+00       3.506057233903e-09       2.381531739133e-10      -9.140295762121e-13 
    5       1.178734680700e-10       3.071473028824e-15       3.154858174843e-13       0.000000000000e+00       2.616761004344e-09       1.879758211340e-10      -5.092780097259e-13 
    6       1.143704045521e-10       1.717975116275e-15       2.539303840394e-13       0.000000000000e+00       2.043164165590e-09       1.528455259690e-10      -2.108679844401e-13 
    7       1.120892654508e-10       9.268200368423e-16       1.992326377393e-13       0.000000000000e+00       1.647060307865e-09       1.270573554163e-10      -2.031624616042e-14 
    8       1.107695367876e-10       5.957109159810e-16       1.572026974310e-13       0.000000000000e+00       1.359515994417e-09       1.075201245274e-10       7.715352504011e-14 
    9       1.101803238013e-10       4.768866828199e-16       1.291040062285e-13       0.000000000000e+00       1.143003083763e-09       9.241113500471e-11       1.047198662290e-13 
   10       1.100710466725e-10       4.062919512848e-16       1.135961609007e-13       0.000000000000e+00       9.756561277712e-10       8.047859415193e-11       8.813466743703e-14 
   11       1.104084036634e-10       3.417755847626e-16       1.080051373610e-13       0.000000000000e+00       8.233363282341e-10       7.117306596147e-11       5.148003076177e-14 
   12       1.110300809426e-10       2.981785485465e-16       1.092371111753e-13       0.000000000000e+00       7.190436655097e-10       6.291697372006e-11       1.218604473594e-14 
   13       1.118797387028e-10       2.863094503229e-16       1.146080793881e-13       0.000000000000e+00       6.334663714338e-10       5.623221529960e-11      -1.773442951476e-14 
   14       1.129491969083e-10       2.984388184118e-16       1.221186603671e-13       0.000000000000e+00       5.623010642916e-10       5.046610770456e-11      -3.401810094839e-14 
   15       1.141918443311e-10       3.231401720054e-16       1.304021976873e-13       0.000000000000e+00       5.024237203244e-10       4.558740351118e-11      -3.695508365475e-14 
   16       1.155317184332e-10       3.581133447270e-16       1.388386982759e-13       0.000000000000e+00       4.515350231735e-10       4.136894789860e-11      -3.039535549077e-14 
   17       1.170050413409e-10       4.086947798378e-16       1.473070539563e-13       0.000000000000e+00       4.078987650612e-10       3.768087225651e-11      -1.947082241509e-14 
   18       1.185566395942e-10       4.801176291138e-16       1.559221374043e-13       0.000000000000e+00       3.700400151370e-10       3.448458482526e-11      -9.026588820750e-15 
   19       1.201999381030e-10       5.727215684399e-16       1.648816995181e-13       0.000000000000e+00       3.373528039214e-10       3.172714216381e-11      -1.662993979442e-15 
   20       1.219260905794e-10       6.845927649495e-16       1.743712811748e-13       0.000000000000e+00       3.085740926302e-10       2.927318513690e-11       8.963283476449e-16 
   21       1.237279707595e-10       8.151400769186e-16       1.843756546725e-13       0.000000000000e+00       2.832491987230e-10       2.707431445816e-11      -7.887422655991e-16 
   22       1.255704922417e-10       9.639001679252e-16       1.947289552030e-13       0.000000000000e+00       2.607694468778e-10       2.508064495365e-11      -4.974085801718e-15 
   23       1.274675276941e-10       1.130993833344e-15       2.050674857411e-13       0.000000000000e+00       2.408240873567e-10       2.329671475394e-11      -9.906654807956e-15 
   24       1.294252924710e-10       1.316606435374e-15       2.149267750700e-13       0.000000000000e+00       2.229504451920e-10       2.171785548221e-11      -1.372213165182e-14 
   25       1.314358412215e-10       1.521166640292e-15       2.240357230829e-13       0.000000000000e+00       2.069370488191e-10       2.030549312331e-11      -1.562310880729e-14 
   26       1.334739459442e-10       1.745327946391e-15       2.321900062974e-13       0.000000000000e+00       1.924927844275e-10       1.900084173114e-11      -1.531817497643e-14 
   27       1.355462354140e-10       1.990777355742e-15       2.393057401597e-13       0.000000000000e+00       1.794434960802e-10       1.780413714172e-11      -1.342094784795e-14 
   28       1.376589677826e-10       2.259541085835e-15       2.453600046711e-13       0.000000000000e+00       1.675633573330e-10       1.672410154192e-11      -1.091409259844e-14 
   29       1.398192108125e-10       2.553078980451e-15       2.503925346870e-13       0.000000000000e+00       1.567912041232e-10       1.575535255780e-11      -8.421907145388e-15 
   30       1.420212553837e-10       2.872698834687e-15       2.544926199777e-13       0.000000000000e+00       1.470108597278e-10       1.487657680294e-11      -6.566757871052e-15 
   31       1.442489980401e-10       3.219650717293e-15       2.577564773481e-13       0.000000000000e+00       1.380221858595e-10       1.405853398530e-11      -5.926751029938e-15 
   32       1.465068199614e-10       3.594854373060e-15       2.601525730501e-13       0.000000000000e+00       1.297784187489e-10       1.329686043525e-11      -6.353844966317e-15 
   33       1.487976704066e-10       3.999056222557e-15       2.616057289667e-13       0.000000000000e+00       1.222209385244e-10       1.259003133049e-11      -7.388590245440e-15 
   34       1.511170397148e-10       4.432960523910e-15       2.620226401450e-13       0.000000000000e+00       1.152435867768e-10       1.193273588951e-11      -8.507779950317e-15 
   35       1.534643346263e-10       4.897474527597e-15       2.612632074648e-13       0.000000000000e+00       1.088104054875e-10       1.132463060127e-11      -9.413229037465e-15 
   36       1.558336837074e-10       5.393541484335e-15       2.591564579512e-13       0.000000000000e+00       1.028695316932e-10       1.076384417358e-11      -9.834989496595e-15 
   37       1.582155102108e-10       5.922049870523e-15       2.555440056591e-13       0.000000000000e+00       9.734335725627e-11       1.024572924094e-11      -9.548216820181e-15 
   38       1.606155450177e-10       6.483752669598e-15       2.504094718989e-13       0.000000000000e+00       9.221747763286e-11       9.767889439382e-12      -8.703157056241e-15 
   39       1.630409733666e-10       7.079314662197e-15       2.437923212065e-13       0.000000000000e+00       8.747553130280e-11       9.326261230533e-12      -7.607731108206e-15 
   40       1.654947089828e-10       7.709328061357e-15       2.357550085862e-13       0.000000000000e+00       8.307214849815e-11       8.913407773537e-12      -6.645484842984e-15 
   41       1.679765708168e-10       8.374348180190e-15       2.263584981677e-13       0.000000000000e+00       7.894873115202e-11       8.520950409488e-12      -6.175024129794e-15 
   42       1.704884702573e-10       9.075025622640e-15       2.155758742670e-13       0.000000000000e+00       7.509305171865e-11       8.148491048472e-12      -6.177193227803e-15 
   43       1.730300749295e-10       9.812009267108e-15       2.033529604275e-13       0.000000000000e+00       7.149479814300e-11       7.797121028409e-12      -6.501270790104e-15 
   44       1.755969045007e-10       1.058590778302e-14       1.896313968281e-13       0.000000000000e+00       6.812769120721e-11       7.466866148076e-12      -6.958193904289e-15 
   45       1.781829642250e-10       1.139728739692e-14       1.743543480213e-13       0.000000000000e+00       6.495885254978e-11       7.156967005799e-12      -7.362503714699e-15 
   46       1.807904869302e-10       1.224666887277e-14       1.574865650728e-13       0.000000000000e+00       6.198324271487e-11       6.867043135104e-12      -7.678710605465e-15 
   47       1.834224520493e-10       1.313452639611e-14       1.389996685981e-13       0.000000000000e+00       5.919735733629e-11       6.596115799676e-12      -7.914662523191e-15 
   48       1.860796181343e-10       1.406128595925e-14       1.188665460800e-13       0.000000000000e+00       5.658884145370e-11       6.342191952262e-12      -8.081214152841e-15 
   49       1.887603136077e-10       1.502732344159e-14       9.706131902238e-14       0.000000000000e+00       5.413583157642e-11       6.102191127084e-12      -8.192413281684e-15 
   50       1.914620255119e-10       1.603293299236e-14       7.355754003084e-14       0.000000000000e+00       5.181353157348e-11       5.872839041756e-12      -8.265688706769e-15 
   51       1.941871596135e-10       1.707822651474e-14       4.832228331953e-14       0.000000000000e+00       4.961757104044e-11       5.653803965234e-12      -8.322041723391e-15 
   52       1.969384821157e-10       1.816320357955e-14       2.132039336361e-14       0.000000000000e+00       4.754585001412e-11       5.445285310551e-12      -8.386228755510e-15 
   53       1.997173366334e-10       1.928777549975e-14      -7.483998610494e-15       0.000000000000e+00       4.559154931080e-11       5.247094372102e-12      -8.486946368653e-15 
   54       2.025235195564e-10       2.045176201316e-14      -3.812759076824e-14       0.000000000000e+00       4.374281300540e-11       5.058626710270e-12      -8.657017706500e-15 
   55       2.053561513223e-10       2.165496018485e-14      -7.064113351284e-14       0.000000000000e+00       4.198635959188e-11       4.879117524997e-12      -8.922940520511e-15 
   56       2.082168292271e-10       2.289737875765e-14      -1.050268604140e-13       0.000000000000e+00       4.032009339558e-11       4.708545331295e-12      -9.270063576379e-15 
   57       2.111070395295e-10       2.417905620900e-14      -1.412756540710e-13       0.000000000000e+00       3.874306994371e-11       4.546904405640e-12      -9.669085877659e-15 
   58       2.140271461964e-10       2.549999313952e-14      -1.793732990812e-13       0.000000000000e+00       3.725168089771e-11       4.393925236938e-12      -1.008571404776e-14 
   59       2.169763050681e-10       2.686015176964e-14      -2.193003296128e-13       0.000000000000e+00       3.583948959786e-11       4.249057936703e-12      -1.048043428316e-14 
   60       2.199523780229e-10       2.825945543605e-14      -2.610318769780e-13       0.000000000000e+00       3.449706660796e-11       4.111455649222e-12      -1.080828430655e-14 
   61       2.229530538556e-10       2.969770503725e-14      -3.045427151667e-13       0.000000000000e+00       3.321460496873e-11       3.980210774293e-12      -1.102927421221e-14 
   62       2.259796990961e-10       3.117430759314e-14      -3.498240657005e-13       0.000000000000e+00       3.199082397296e-11       3.855163126570e-12      -1.114289824762e-14 
   63       2.290342231662e-10       3.268848558699e-14      -3.968703114905e-13       0.000000000000e+00       3.082578120469e-11       3.736244562860e-12      -1.116100015288e-14 
   64       2.321179013343e-10       3.423935156369e-14      -4.456741439810e-13       0.000000000000e+00       2.971819443915e-11       3.623233778079e-12      -1.109791549706e-14 
   65       2.352313271683e-10       3.582590499111e-14      -4.962265756502e-13       0.000000000000e+00       2.866536538550e-11       3.515747736980e-12      -1.097058151262e-14 
   66       2.383743649889e-10       3.744702912149e-14      -5.485169525100e-13       0.000000000000e+00       2.766310342951e-11       3.413233105871e-12      -1.079864692996e-14 
   67       2.415461023227e-10       3.910148785282e-14      -6.025329666070e-13       0.000000000000e+00       2.670564937624e-11       3.314957684345e-12      -1.060458181189e-14 
   68       2.447455359179e-10       4.078804516000e-14      -6.582599180692e-13       0.000000000000e+00       2.578721192040e-11       3.220202597458e-12      -1.040928582911e-14 
   69       2.479738974883e-10       4.250585850539e-14      -7.156782996682e-13       0.000000000000e+00       2.490710903709e-11       3.128903246611e-12      -1.021763422734e-14 
   70       2.512327159763e-10       4.425415987150e-14      -7.747657430333e-13       0.000000000000e+00       2.406553616685e-11       3.041123436490e-12      -1.003018694748e-14 
   71       2.545230974172e-10       4.603214024066e-14      -8.354977192275e-13       0.000000000000e+00       2.326201128102e-11       2.956862733579e-12      -9.847425848593e-15 
   72       2.578456961539e-10       4.783894959119e-14      -8.978475320554e-13       0.000000000000e+00       2.249533987067e-11       2.876053032421e-12      -9.669749412999e-15 
   73       2.612006860509e-10       4.967369689354e-14      -9.617863113699e-13       0.000000000000e+00       2.176357993551e-11       2.798555121884e-12      -9.497467451400e-15 
   74       2.645877317088e-10       5.153545010649e-14      -1.027283006379e-12       0.000000000000e+00       2.106400697283e-11       2.724155251418e-12      -9.330795807965e-15 
   75       2.680059596784e-10       5.342323617326e-14      -1.094304378956e-12       0.000000000000e+00       2.039307896646e-11       2.652561697320e-12      -9.169851065440e-15 
   76       2.714544672617e-10       5.533598822540e-14      -1.162815058872e-12       0.000000000000e+00       1.974731476103e-11       2.583482442481e-12      -9.014815225658e-15 
   77       2.749340196603e-10       5.727237608782e-14      -1.232777735945e-12       0.000000000000e+00       1.912619149870e-11       2.516882159614e-12      -8.866476125173e-15 
   78       2.784456114501e-10       5.923094471493e-14      -1.304152990932e-12       0.000000000000e+00       1.852971439075e-11       2.452766069472e-12      -8.725776405112e-15 
   79       2.819899389761e-10       6.121016317220e-14      -1.376899231378e-12       0.000000000000e+00       1.795753418725e-11       2.391101242888e-12      -8.593650498162e-15 
   80       2.855673825899e-10       6.320842354973e-14      -1.450972686189e-12       0.000000000000e+00       1.740893089571e-11       2.331814830335e-12      -8.471022819147e-15 
   81       2.891779888882e-10       6.522403987590e-14      -1.526327400208e-12       0.000000000000e+00       1.688279749973e-11       2.274792291485e-12      -8.358805955624e-15 
   82       2.928214529508e-10       6.725524703097e-14      -1.602915228798e-12       0.000000000000e+00       1.637762367762e-11       2.219875624771e-12      -8.257898858461e-15 
   83       2.964971005779e-10       6.930019966069e-14      -1.680685832413e-12       0.000000000000e+00       1.589147952106e-11       2.166861596945e-12      -8.169185032429e-15 
   84       3.002042216121e-10       7.135703869174e-14      -1.759587585916e-12       0.000000000000e+00       1.542248408230e-11       2.115551704110e-12      -8.093177433519e-15 
   85       3.039431722986e-10       7.342410592725e-14      -1.839570491605e-12       0.000000000000e+00       1.497033592682e-11       2.065915449303e-12      -8.028889485773e-15 
   86       3.077144239567e-10       7.549976320027e-14      -1.920583741405e-12       0.000000000000e+00       1.453500764255e-11       2.017951012713e-12      -7.974772715281e-15 
   87       3.115182164583e-10       7.758232798401e-14      -2.002574854875e-12       0.000000000000e+00       1.411627555798e-11       1.971635039141e-12      -7.929045769733e-15 
   88       3.153545463661e-10       7.967007344166e-14      -2.085489689159e-12       0.000000000000e+00       1.371371160914e-11       1.926921736992e-12      -7.889686671300e-15 
   89       3.192231550728e-10       8.176122847614e-14      -2.169272448934e-12       0.000000000000e+00       1.332667520665e-11       1.883741977278e-12      -7.854425069519e-15 
   90       3.231235169389e-10       8.385397777990e-14      -2.253865696364e-12       0.000000000000e+00       1.295430510271e-11       1.842002392608e-12      -7.820734494179e-15 
   91       3.270548274318e-10       8.594646188470e-14      -2.339210361049e-12       0.000000000000e+00       1.259551125817e-11       1.801584476187e-12      -7.785824608206e-15 
   92       3.310159912640e-10       8.803677721137e-14      -2.425245749977e-12       0.000000000000e+00       1.224896670947e-11       1.762343680812e-12      -7.746633460544e-15 
   93       3.350059635212e-10       9.012300411755e-14      -2.511910073293e-12       0.000000000000e+00       1.191342213313e-11       1.724145867487e-12      -7.700515637879e-15 
   94       3.390248574980e-10       9.220329575815e-14      -2.599142090449e-12       0.000000000000e+00       1.158872132278e-11       1.686984879016e-12      -7.647441938560e-15 
   95       3.430729823254e-10       9.427580274371e-14      -2.686879731185e-12       0.000000000000e+00       1.127492411350e-11       1.650881065900e-12      -7.588117745526e-15 
   96       3.471504979052e-10       9.633864676160e-14      -2.775059618574e-12       0.000000000000e+00       1.097199363906e-11       1.615845129211e-12      -7.523318386351e-15 
   97       3.512574078945e-10       9.838992101009e-14      -2.863617086054e-12       0.000000000000e+00       1.067979262848e-11       1.581877732276e-12      -7.453890938621e-15 
   98       3.553935526891e-10       1.004276906324e-13      -2.952486194458e-12       0.000000000000e+00       1.039807970276e-11       1.548969112369e-12      -7.380756035303e-15 
   99       3.595586024077e-10       1.024499931510e-13      -3.041599749050e-12       0.000000000000e+00       1.012650567140e-11       1.517098692396e-12      -7.304909670122e-15 
  100       3.637520498759e-10       1.044548389014e-13      -3.130889316549e-12       0.000000000000e+00       9.864609829141e-12       1.486234692589e-12      -7.227425002934e-15 
  101       3.679732036102e-10       1.064402114665e-13      -3.220285242169e-12       0.000000000000e+00       9.611816252516e-12       1.456333742186e-12      -7.149454165100e-15 
  102       3.722211808018e-10       1.084040681106e-13      -3.309716666644e-12       0.000000000000e+00       9.367430096522e-12       1.427340491129e-12      -7.072230064858e-15 
  103       3.764949003006e-10       1.103443402136e-13      -3.399111543262e-12       0.000000000000e+00       9.130633891243e-12       1.399187221745e-12      -6.997068192700e-15 
  104       3.807933072144e-10       1.122589855040e-13      -3.488397330805e-12       0.000000000000e+00       8.900672721547e-12       1.371809826799e-12      -6.925093410123e-15 
  105       3.851160963719e-10       1.141461518595e-13      -3.577503142282e-12       0.000000000000e+00       8.677446231843e-12       1.345199038164e-12      -6.856374394900e-15 
  106       3.894630739636e-10       1.160040365458e-13      -3.666357919566e-12       0.000000000000e+00       8.460990060695e-12       1.319355426691e-12      -6.790675093400e-15 
  107       3.938339302375e-10       1.178308373848e-13      -3.754889807561e-12       0.000000000000e+00       8.251292490973e-12       1.294273447866e-12      -6.727718093970e-15 
